residue,imf1,imf2,imf3,imf4,imf5,imf6,imf7,imf8
-0.014129168,-0.018555053,0.016733158,0.071374275,-0.031064452,0.085163675,0.033051959,0.014666415,0.017681413
-0.014132275,-0.018409194,0.016986081,0.070513796,-0.030350952,0.085020985,0.032965470,0.014649939,0.017678371
-0.014135384,-0.018035726,0.017099314,0.069519431,-0.029570626,0.084858652,0.032877903,0.014633347,0.017675311
-0.014138494,-0.017410079,0.017048888,0.068392647,-0.028725702,0.084676825,0.032789265,0.014616640,0.017672232
-0.014141605,-0.016507680,0.016810831,0.067134910,-0.027818403,0.084475655,0.032699562,0.014599817,0.017669135
-0.014144717,-0.015303959,0.016361174,0.065747690,-0.026850956,0.084255292,0.032608800,0.014582880,0.017666019
-0.014147831,-0.013774344,0.015675945,0.064232452,-0.025825585,0.084015886,0.032516985,0.014565828,0.017662885
-0.014150946,-0.011894263,0.014731175,0.062590664,-0.024744515,0.083757588,0.032424124,0.014548662,0.017659733
-0.014154062,0.015360854,0.013502893,0.060823794,-0.023609972,0.083480548,0.032330224,0.014531382,0.017656563
-0.014157180,0.004744115,0.010238593,0.058933308,-0.022424181,0.083184915,0.032235290,0.014513988,0.017653374
-0.014160299,-0.000577237,0.006771632,0.056920675,-0.021189368,0.082870841,0.032139329,0.014496481,0.017650168
-0.014163419,-0.000707421,0.003206831,0.054787361,-0.019907756,0.082538476,0.032042347,0.014478861,0.017646942
-0.014166540,-0.005750657,-0.000350989,0.052534834,-0.018581573,0.082187970,0.031944351,0.014461128,0.017643699
-0.014169663,0.005100035,-0.004708208,0.050164560,-0.017213042,0.081819473,0.031845347,0.014443283,0.017640438
-0.014172787,0.003935441,-0.006955011,0.047678009,-0.015804389,0.081433135,0.031745341,0.014425326,0.017637158
-0.014175912,-0.007686456,-0.008648780,0.045076646,-0.014357840,0.081029107,0.031644340,0.014407257,0.017633860
-0.014179039,-0.009943675,-0.009610894,0.042361939,-0.012875619,0.080607540,0.031542350,0.014389077,0.017630544
-0.014182167,-0.013014234,-0.009662736,0.039535356,-0.011359953,0.080168582,0.031439378,0.014370786,0.017627210
-0.014185296,0.001977737,-0.006676102,0.035594892,-0.009813065,0.079712385,0.031335429,0.014352384,0.017623858
-0.014188426,0.016123664,-0.002751556,0.031551754,-0.008237181,0.079239099,0.031230510,0.014333872,0.017620487
-0.014191558,-0.006187898,0.002716679,0.027413676,-0.006634527,0.078748874,0.031124628,0.014315249,0.017617099
-0.014194691,-0.013595431,0.008361419,0.023188395,-0.005007327,0.078241860,0.031017789,0.014296517,0.017613692
-0.014197825,-0.025494175,0.013572237,0.018883643,-0.003357808,0.077718208,0.030909999,0.014277675,0.017610268
-0.014200961,-0.014964391,0.017161847,0.013769038,-0.001688193,0.077178068,0.030801265,0.014258724,0.017606825
-0.014204098,0.012030720,0.019349473,0.008590624,-0.000000709,0.076621591,0.030691592,0.014239664,0.017603364
-0.014207236,0.035842937,0.019777481,0.003356325,0.001702420,0.076048925,0.030580988,0.014220496,0.017599886
-0.014210375,0.026977197,0.012935075,-0.001925932,0.003418968,0.075460223,0.030469459,0.014201219,0.017596389
-0.014213516,0.004551080,0.004698818,-0.007248222,0.005146709,0.074855633,0.030357010,0.014181835,0.017592874
-0.014216658,0.002835325,-0.004207885,-0.012602621,0.006883420,0.074235307,0.030243649,0.014162343,0.017589342
-0.014219801,-0.013899330,-0.013061629,-0.017981203,0.008626874,0.073599394,0.030129382,0.014142744,0.017585791
-0.014222946,0.008681716,-0.021202873,-0.023376042,0.010374847,0.072948046,0.030014215,0.014123037,0.017582223
-0.014226091,-0.003600649,-0.024458362,-0.028779213,0.012125112,0.072281411,0.029898154,0.014103225,0.017578636
-0.014229238,-0.002134746,-0.026445631,-0.034182792,0.013875446,0.071599641,0.029781206,0.014083305,0.017575032
-0.014232387,-0.006720913,-0.027370200,-0.039578852,0.015623622,0.070902885,0.029663377,0.014063280,0.017571410
-0.014235536,-0.017159489,-0.027437586,-0.044959469,0.017367415,0.070191294,0.029544674,0.014043150,0.017567770
-0.014238687,-0.013250814,-0.026853307,-0.050316717,0.019104601,0.069465019,0.029425103,0.014022913,0.017564112
-0.014241839,-0.010907728,-0.024710379,-0.055642671,0.020832953,0.068724209,0.029304669,0.014002572,0.017560436
-0.014244993,0.001292621,-0.022437512,-0.060929406,0.022550248,0.067969015,0.029183381,0.013982126,0.017556742
-0.014248147,0.013660584,-0.020350914,-0.066168996,0.024254259,0.067199587,0.029061243,0.013961576,0.017553031
-0.014251303,0.006567601,-0.018827881,-0.071353516,0.025942761,0.066416075,0.028938263,0.013940922,0.017549302
-0.014254460,-0.000174101,-0.017686499,-0.076475041,0.027613529,0.065618629,0.028814446,0.013920163,0.017545555
-0.014257619,-0.011691205,-0.016805939,-0.081525646,0.029264338,0.064807401,0.028689800,0.013899302,0.017541790
-0.014260779,-0.008110394,-0.016065377,-0.086497404,0.030892963,0.063982539,0.028564329,0.013878337,0.017538007
-0.014263940,-0.004366072,-0.015536266,-0.091382392,0.032497178,0.063144196,0.028438042,0.013857269,0.017534207
-0.014267102,-0.000909231,-0.014773470,-0.096172684,0.034074759,0.062292519,0.028310943,0.013836099,0.017530389
-0.014270265,0.007001415,-0.013524134,-0.100860354,0.035623479,0.061427661,0.028183040,0.013814827,0.017526554
-0.014273430,-0.002492865,-0.009935382,-0.105437478,0.037141114,0.060549771,0.028054339,0.013793453,0.017522700
-0.014276596,-0.012472318,-0.005932825,-0.109896129,0.038625439,0.059658999,0.027924846,0.013771977,0.017518829
-0.014279763,0.006638418,-0.001976568,-0.113349497,0.040074227,0.058755496,0.027794568,0.013750401,0.017514941
-0.014282932,0.015937204,0.001715242,-0.116675227,0.041485255,0.057839412,0.027663510,0.013728723,0.017511034
-0.014286102,0.017048529,0.002431365,-0.118784500,0.042856297,0.056910898,0.027531680,0.013706944,0.017507110
-0.014289273,0.013430883,0.002582383,-0.120544319,0.044185127,0.055970103,0.027399083,0.013685066,0.017503169
-0.014292445,0.009813758,0.002220295,-0.121734108,0.045469521,0.055017178,0.027265726,0.013663087,0.017499210
-0.014295619,-0.009073357,0.001397104,-0.122133290,0.046707253,0.054052273,0.027131616,0.013641009,0.017495233
-0.014298794,0.006014109,0.000649731,-0.121284868,0.048262545,0.052472670,0.026996758,0.013618831,0.017491239
-0.014301970,-0.006191490,0.000738868,-0.118916723,0.049766834,0.050881762,0.026861159,0.013596555,0.017487227
-0.014305147,0.014583961,-0.009142426,-0.109494442,0.051218003,0.049280071,0.026724826,0.013574179,0.017483198
-0.014308326,-0.009942268,-0.004189887,-0.099537976,0.052613936,0.047668123,0.026587764,0.013551706,0.017479151
-0.014311505,-0.037742539,0.003112281,-0.088589173,0.053952516,0.046046441,0.026449981,0.013529134,0.017475087
-0.014314687,-0.073415829,0.012501130,-0.076784521,0.055231628,0.044415548,0.026311482,0.013506465,0.017471005
-0.014317869,-0.101561115,0.023713711,-0.064260507,0.056449155,0.042775970,0.026172274,0.013483698,0.017466906
-0.014321053,-0.141777374,0.036487074,-0.051153621,0.057602981,0.041128228,0.026032363,0.013460834,0.017462789
-0.014324237,-0.193663583,0.050558271,-0.037600350,0.058690990,0.039472849,0.025891755,0.013437873,0.017458655
-0.014327424,-0.246818719,0.065664352,-0.023737183,0.059711064,0.037810354,0.025750457,0.013414816,0.017454503
-0.014330611,-0.275841759,0.081542369,-0.009700607,0.060661089,0.036141269,0.025608476,0.013391663,0.017450334
-0.014333800,-0.325331681,0.097929372,0.004372889,0.061538947,0.034466117,0.025465817,0.013368413,0.017446148
-0.014336989,-0.404887461,0.114562412,0.018346816,0.062342522,0.032785421,0.025322488,0.013345069,0.017441944
-0.014340181,-0.464108076,0.131178541,0.032084687,0.063069698,0.031099707,0.025178493,0.013321629,0.017437723
-0.014343373,-0.497196090,0.152118396,0.045450014,0.063718359,0.029409497,0.025033840,0.013298094,0.017433485
-0.014346567,-0.468955911,0.172324457,0.058306309,0.064286388,0.027715316,0.024888535,0.013274465,0.017429229
-0.014349761,-0.403795533,0.191342795,0.070517082,0.064771669,0.026017687,0.024742585,0.013250741,0.017424956
-0.014352957,-0.321122949,0.208719475,0.081945847,0.065172086,0.024317135,0.024595995,0.013226924,0.017420666
-0.014356155,-0.195346155,0.224000568,0.092456114,0.065485523,0.022614183,0.024448773,0.013203013,0.017416358
-0.014359353,-0.025873144,0.236732140,0.101911396,0.065709862,0.020909355,0.024300924,0.013179008,0.017412033
-0.014362553,0.212888090,0.246460261,0.110175205,0.065842988,0.019203175,0.024152455,0.013154911,0.017407691
-0.014365754,0.446529552,0.252730997,0.117111051,0.065882785,0.017496167,0.024003372,0.013130721,0.017403332
-0.014368957,0.600643247,0.255090417,0.122582448,0.065827136,0.015788855,0.023853681,0.013106439,0.017398955
-0.014372160,0.660821183,0.266055338,0.115819893,0.063336190,0.014081762,0.023703390,0.013082064,0.017394562
-0.014375365,0.634761415,0.229761793,0.107643561,0.060755153,0.012375413,0.023552503,0.013057598,0.017390151
-0.014378571,0.443836202,0.189642363,0.098240610,0.058091495,0.010670331,0.023401029,0.013033041,0.017385723
-0.014381778,0.151523854,0.147023577,0.087798201,0.055352687,0.008967041,0.023248972,0.013008392,0.017381277
-0.014384987,-0.123697321,0.103231965,0.076503494,0.052546199,0.007266065,0.023096339,0.012983653,0.017376815
-0.014388196,-0.263349013,0.059594056,0.064543649,0.049679502,0.005567929,0.022943138,0.012958823,0.017372335
-0.014391407,-0.273952914,0.017436380,0.052105826,0.046760066,0.003873156,0.022789373,0.012933903,0.017367839
-0.014394620,-0.209972155,-0.018973092,0.039377186,0.043795363,0.002182269,0.022635052,0.012908894,0.017363325
-0.014397833,-0.104823137,-0.051413120,0.026544888,0.040792863,0.000495793,0.022480180,0.012883795,0.017358794
-0.014401048,-0.019863706,-0.078721021,0.013796092,0.037760036,-0.001185748,0.022324765,0.012858606,0.017354246
-0.014404264,0.023548298,-0.099734114,0.001317958,0.034704353,-0.002861831,0.022168812,0.012833329,0.017349681
-0.014407481,0.014885508,-0.084120195,-0.010702354,0.031633285,-0.004531932,0.022012328,0.012807963,0.017345100
-0.014410699,0.000442478,-0.064132506,-0.021314155,0.028554302,-0.006195526,0.021855319,0.012782510,0.017340501
-0.014413919,0.010864696,-0.044826527,-0.031115457,0.025474875,-0.007852090,0.021697791,0.012756968,0.017335885
-0.014417140,0.009450921,-0.024674533,-0.039940742,0.022402475,-0.009501101,0.021539752,0.012731339,0.017331252
-0.014420362,0.013020367,-0.005669257,-0.047624495,0.019344572,-0.011142033,0.021381207,0.012705622,0.017326602
-0.014423585,0.013392251,0.010196565,-0.054001197,0.016308636,-0.012774364,0.021222162,0.012679818,0.017321935
-0.014426809,0.003444761,0.012810490,-0.051844593,0.013302140,-0.014397569,0.021062625,0.012653928,0.017317251
-0.014430035,-0.009083033,0.011730554,-0.048459793,0.010332552,-0.016011125,0.020902600,0.012627952,0.017312551
-0.014433262,-0.010393088,0.008395083,-0.044091164,0.007407344,-0.017614508,0.020742096,0.012601889,0.017307833
-0.014436490,0.009031437,0.003523604,-0.039206816,0.004757723,-0.019207193,0.020581117,0.012575741,0.017303099
-0.014439720,-0.008518180,0.000061209,-0.033826065,0.002166109,-0.020788657,0.020419671,0.012549508,0.017298347
-0.014442950,0.000742955,-0.000314170,-0.028418424,-0.000361344,-0.022358376,0.020257764,0.012523189,0.017293579
-0.014446182,0.004139062,0.000069078,-0.022986411,-0.002818480,-0.023915826,0.020095402,0.012496786,0.017288794
-0.014449415,-0.003149671,0.001253054,-0.017759000,-0.005199143,-0.025460484,0.019932591,0.012470298,0.017283992
-0.014452650,0.001909089,-0.000011515,-0.012525937,-0.007497178,-0.026991824,0.019769338,0.012443727,0.017279173
-0.014455885,0.007424259,-0.001425587,-0.007701869,-0.009706430,-0.028509325,0.019605649,0.012417071,0.017274338
-0.014459122,0.002748775,-0.002373365,-0.003262212,-0.011820742,-0.030012461,0.019441531,0.012390332,0.017269486
-0.014462360,0.003009570,-0.003013054,0.000817616,-0.013833960,-0.031500708,0.019276990,0.012363510,0.017264617
-0.014465599,-0.011919346,-0.003249930,0.004562199,-0.015739926,-0.032973544,0.019112032,0.012336605,0.017259731
-0.014468840,-0.022163966,-0.002625408,0.005549049,-0.015449280,-0.034430443,0.018946664,0.012309618,0.017254829
-0.014472081,-0.004136594,-0.000133503,0.006272476,-0.015050542,-0.035870883,0.018780891,0.012282548,0.017249909
-0.014475324,0.003819510,0.002526591,0.006779720,-0.014549029,-0.037294338,0.018614721,0.012255397,0.017244973
-0.014478568,0.022074775,0.004941992,0.007118020,-0.013950055,-0.038700286,0.018448160,0.012228164,0.017240021
-0.014481813,0.008139834,0.004788525,0.007105701,-0.013258937,-0.040088203,0.018281214,0.012200850,0.017235052
-0.014485060,0.009800442,0.004040449,0.006987533,-0.012480988,-0.041457564,0.018113889,0.012173455,0.017230066
-0.014488308,0.001982558,0.002760735,0.006779374,-0.011621526,-0.042807845,0.017946192,0.012145979,0.017225063
-0.014491557,-0.005387858,0.001012349,0.006497079,-0.010685863,-0.044138524,0.017778129,0.012118423,0.017220044
-0.014494807,0.004007352,-0.002533936,0.006156503,-0.009679317,-0.045449075,0.017609707,0.012090787,0.017215008
-0.014498058,0.001601628,-0.004322632,0.005773503,-0.008607202,-0.046738976,0.017440931,0.012063072,0.017209956
-0.014501311,-0.001164880,-0.005804960,0.005363934,-0.007474833,-0.048007702,0.017271809,0.012035277,0.017204887
-0.014504564,-0.009466249,-0.006817912,0.004943652,-0.006287526,-0.049254729,0.017102346,0.012007403,0.017199801
-0.014507819,-0.009538456,-0.006481158,0.004873085,-0.005050596,-0.050479533,0.016932549,0.011979450,0.017194699
-0.014511076,0.004831369,-0.005658801,0.004808254,-0.003769358,-0.051681591,0.016762424,0.011951419,0.017189581
-0.014514333,0.013794193,-0.004497621,0.004749754,-0.002449127,-0.052860378,0.016591978,0.011923310,0.017184446
-0.014517592,0.012500989,-0.003144397,0.004698176,-0.001095218,-0.054015372,0.016421217,0.011895124,0.017179294
-0.014520851,0.010956028,-0.001599210,0.004654116,0.000021290,-0.054880285,0.016250148,0.011866859,0.017174126
-0.014524112,-0.000619636,-0.000078921,0.004740028,0.000317159,-0.054998531,0.016078776,0.011838518,0.017168942
-0.014527375,-0.012151651,0.001346306,0.004833403,0.000707766,-0.055167176,0.015907108,0.011810100,0.017163741
-0.014530638,0.011264328,0.002776319,0.004933593,0.001129556,-0.055326215,0.015735150,0.011781606,0.017158523
-0.014533903,0.010395888,0.003447721,0.005039950,0.001579051,-0.055475719,0.015562910,0.011753035,0.017153289
-0.014537169,0.004781614,0.003826119,0.005151826,0.002052774,-0.055615762,0.015390392,0.011724389,0.017148039
-0.014540436,0.004431946,0.003905264,0.005268574,0.002547246,-0.055746415,0.015217604,0.011695667,0.017142773
-0.014543704,-0.000642672,0.003678902,0.005389545,0.003058990,-0.055867750,0.015044552,0.011666869,0.017137490
-0.014546973,-0.000431798,0.002910243,0.005744631,0.003584528,-0.055979838,0.014871242,0.011637997,0.017132190
-0.014550244,-0.004924989,0.001834649,0.006091571,0.004120382,-0.056082753,0.014697681,0.011609051,0.017126875
-0.014553516,0.007092626,-0.000747486,0.006418643,0.004663075,-0.056176566,0.014523874,0.011580030,0.017121543
-0.014556789,-0.001607240,-0.002592610,0.006714125,0.005209128,-0.056261350,0.014349829,0.011550935,0.017116194
-0.014560063,-0.010806215,-0.003903832,0.006966296,0.005755063,-0.056337175,0.014175552,0.011521767,0.017110830
-0.014563338,-0.015778940,-0.004391244,0.007163433,0.006297404,-0.056404115,0.014001048,0.011492525,0.017105449
-0.014566615,-0.013575786,-0.001853929,0.007158535,0.006832671,-0.056462241,0.013826325,0.011463210,0.017100052
-0.014569893,-0.011725035,0.001105862,0.007085675,0.007357388,-0.056511625,0.013651388,0.011433823,0.017094638
-0.014573172,0.000469298,0.003796893,0.006943650,0.007868076,-0.056552340,0.013476245,0.011404364,0.017089209
-0.014576452,0.008703202,0.005527922,0.006731254,0.008361257,-0.056584456,0.013300901,0.011374832,0.017083763
-0.014579734,-0.004912649,0.004555456,0.005845026,0.009073279,-0.056608048,0.013125363,0.011345228,0.017078301
-0.014583016,0.004751470,0.000372984,0.004901201,0.009764755,-0.056623186,0.012949637,0.011315554,0.017072822
-0.014586300,-0.007229855,-0.002108428,0.003913756,0.010436126,-0.056629942,0.012773729,0.011285808,0.017067328
-0.014589585,0.009126882,-0.002886641,0.002896670,0.011087829,-0.056628389,0.012597647,0.011255991,0.017061818
-0.014592871,0.005062066,-0.003216391,0.001863922,0.011720305,-0.056618598,0.012421395,0.011226104,0.017056291
-0.014596159,0.005737506,-0.003273841,0.000829490,0.012333992,-0.056600642,0.012244981,0.011196147,0.017050748
-0.014599447,-0.003788568,-0.003131573,-0.000192647,0.012929329,-0.056574593,0.012068411,0.011166120,0.017045189
-0.014602737,-0.003457924,-0.002862170,-0.001188510,0.013506755,-0.056540522,0.011891692,0.011136024,0.017039614
-0.014606028,-0.013212334,-0.002538214,-0.002144122,0.014066711,-0.056498502,0.011714829,0.011105858,0.017034023
-0.014609320,0.001338943,-0.001551425,-0.003058874,0.014609634,-0.056448605,0.011537829,0.011075624,0.017028416
-0.014612613,0.000916683,-0.000633125,-0.003922596,0.015135964,-0.056390902,0.011360698,0.011045321,0.017022793
-0.014615908,0.005574171,0.000166226,-0.004738487,0.015646139,-0.056325466,0.011183443,0.011014950,0.017017153
-0.014619203,0.010364693,0.000796169,-0.005509747,0.016140600,-0.056252369,0.011006070,0.010984511,0.017011498
-0.014622500,-0.009416935,0.000871221,-0.006146083,0.016619785,-0.056171683,0.010828586,0.010954004,0.017005827
-0.014625798,-0.008598720,0.000340618,-0.006769098,0.017084134,-0.056083480,0.010650996,0.010923430,0.017000140
-0.014629098,-0.002694322,-0.000254245,-0.007406900,0.017534084,-0.055987831,0.010473308,0.010892790,0.016994437
-0.014632398,0.008193658,-0.000783033,-0.008087598,0.017970077,-0.055884810,0.010295527,0.010862082,0.016988718
-0.014635700,0.008962620,-0.001115410,-0.008839300,0.018392549,-0.055774488,0.010117660,0.010831308,0.016982982
-0.014639002,0.009283555,-0.000894633,-0.009690117,0.018801942,-0.055656936,0.009939713,0.010800469,0.016977232
-0.014642306,-0.005578185,-0.000358317,-0.010668155,0.019198694,-0.055532228,0.009761693,0.010769563,0.016971465
-0.014645612,-0.010583658,0.000944537,-0.012263733,0.019583243,-0.055400435,0.009583606,0.010738592,0.016965682
-0.014648918,-0.010573168,0.002557467,-0.014180456,0.019956030,-0.055261629,0.009405458,0.010707557,0.016959883
-0.014652225,-0.000499246,0.004236473,-0.016222170,0.020317493,-0.055115882,0.009227255,0.010676456,0.016954069
-0.014655534,-0.000193669,0.005783809,-0.018359723,0.020668071,-0.054963266,0.009049005,0.010645291,0.016948238
-0.014658844,0.010511787,0.007001729,-0.020563967,0.021008204,-0.054803854,0.008870713,0.010614062,0.016942392
-0.014662155,-0.002215162,0.006692993,-0.022805752,0.021338330,-0.054637717,0.008692386,0.010582770,0.016936530
-0.014665467,-0.009458818,0.005912378,-0.025055929,0.021658889,-0.054464927,0.008514030,0.010551413,0.016930653
-0.014668781,-0.006303986,0.004715168,-0.027285347,0.021970319,-0.054285556,0.008335651,0.010519994,0.016924759
-0.014672095,-0.002835474,0.003156647,-0.029464857,0.022273061,-0.054099677,0.008157256,0.010488512,0.016918850
-0.014675411,-0.004138089,0.001292097,-0.031565310,0.022567553,-0.053907361,0.007978851,0.010456967,0.016912925
-0.014678728,0.005991639,-0.002111473,-0.033557556,0.022854234,-0.053708681,0.007800443,0.010425360,0.016906984
-0.014682046,-0.000655013,-0.003874864,-0.035412445,0.023133543,-0.053503708,0.007622038,0.010393692,0.016901027
-0.014685365,-0.013176344,-0.004929302,-0.037100829,0.023405919,-0.053292515,0.007443641,0.010361961,0.016895055
-0.014688685,0.001065163,-0.003642043,-0.037893339,0.023671802,-0.053075173,0.007265261,0.010330170,0.016889067
-0.014692007,0.009578139,-0.001821536,-0.038490534,0.023931631,-0.052852778,0.007087926,0.010298318,0.016883064
-0.014695330,0.012838992,0.000055779,-0.038892752,0.024185844,-0.052624378,0.006910618,0.010266405,0.016877045
-0.014698654,0.006722691,0.001114898,-0.039381440,0.024715987,-0.052390043,0.006733342,0.010234431,0.016871010
-0.014701979,-0.009051563,0.001636587,-0.039675282,0.025240843,-0.052149846,0.006556106,0.010202398,0.016864959
-0.014705305,-0.009107461,0.001244501,-0.039774069,0.025760301,-0.051903857,0.006378914,0.010170305,0.016858893
-0.014708633,0.001036931,-0.000922857,-0.038298058,0.026274251,-0.051652148,0.006201771,0.010138153,0.016852811
-0.014711961,0.001122094,-0.003204911,-0.036648132,0.026782583,-0.051394790,0.006024683,0.010105942,0.016846714
-0.014715291,0.005888508,-0.005629485,-0.034536772,0.027285186,-0.051131853,0.005847655,0.010073672,0.016840601
-0.014718622,0.003459870,-0.006000311,-0.032283766,0.027781949,-0.050863410,0.005670694,0.010041344,0.016834473
-0.014721954,-0.004507253,-0.005962858,-0.029900036,0.028272762,-0.050589531,0.005493805,0.010008958,0.016828329
-0.014725287,-0.012973081,-0.005545812,-0.027396502,0.028757515,-0.050310287,0.005316992,0.009976514,0.016822170
-0.014728622,-0.002953053,-0.003722634,-0.024784084,0.029236095,-0.050025750,0.005140262,0.009944012,0.016815995
-0.014731957,0.016745077,-0.001674475,-0.022073705,0.029708394,-0.049735991,0.004963621,0.009911454,0.016809805
-0.014735294,0.016258334,0.000472738,-0.019276285,0.030174300,-0.049441081,0.004787073,0.009878839,0.016803599
-0.014738632,0.010899620,0.002417200,-0.016402744,0.030633703,-0.049141092,0.004610624,0.009846167,0.016797378
-0.014741971,-0.004564653,0.004403594,-0.013464005,0.031086492,-0.048836094,0.004434280,0.009813439,0.016791141
-0.014745311,-0.015192195,0.006500727,-0.010470987,0.031532556,-0.048526158,0.004258046,0.009780655,0.016784889
-0.014748652,0.002979505,0.009757187,-0.007434611,0.031971786,-0.048211357,0.004081928,0.009747816,0.016778621
-0.014751995,0.010993832,0.013140684,-0.004365799,0.032404070,-0.047891761,0.003905931,0.009714922,0.016772338
-0.014755338,0.003914392,0.016598710,-0.001275471,0.032829298,-0.047567441,0.003730061,0.009681972,0.016766040
-0.014758683,0.006804790,0.020078755,0.001825451,0.033247359,-0.047238468,0.003554323,0.009648968,0.016759726
-0.014762029,-0.005669326,0.023926270,0.004926048,0.033658143,-0.046904914,0.003378723,0.009615910,0.016753397
-0.014765376,-0.006783808,0.026428203,0.008015397,0.034061539,-0.046566850,0.003203267,0.009582798,0.016747053
-0.014768725,-0.007682552,0.028739547,0.011082578,0.034457436,-0.046224347,0.003027959,0.009549633,0.016740693
-0.014772074,-0.003359118,0.030864957,0.014116671,0.034845724,-0.045877476,0.002852806,0.009516414,0.016734318
-0.014775425,0.011192936,0.032809091,0.017106754,0.035226293,-0.045526309,0.002677813,0.009483142,0.016727928
-0.014778776,0.010980049,0.034576604,0.020041906,0.035599031,-0.045170916,0.002502985,0.009449817,0.016721523
-0.014782129,0.006678058,0.035502758,0.022911206,0.035963829,-0.044811369,0.002328328,0.009416440,0.016715102
-0.014785483,-0.012359621,0.036245233,0.025703734,0.036320575,-0.044447739,0.002153847,0.009383011,0.016708666
-0.014788839,-0.005444226,0.036126364,0.028408568,0.036669159,-0.044080098,0.001979548,0.009349531,0.016702215
-0.014792195,0.001848224,0.035733266,0.031014788,0.037009470,-0.043708516,0.001805437,0.009315999,0.016695749
-0.014795552,0.014607660,0.034987105,0.033511473,0.037341398,-0.043333064,0.001631519,0.009282416,0.016689267
-0.014798911,-0.000609934,0.032342995,0.035887702,0.037664833,-0.042953814,0.001457800,0.009248782,0.016682770
-0.014802271,-0.000384357,0.030754386,0.036769999,0.037979663,-0.042570838,0.001284284,0.009215098,0.016676258
-0.014805632,-0.009829353,0.028968124,0.037525437,0.038285778,-0.042184205,0.001110978,0.009181363,0.016669731
-0.014808994,-0.008658690,0.026693635,0.038158536,0.038583067,-0.041793988,0.000937887,0.009147579,0.016663189
-0.014812357,0.007513785,0.024540423,0.038673814,0.038871421,-0.041400257,0.000765017,0.009113745,0.016656632
-0.014815721,-0.001567202,0.022759419,0.039075789,0.039150727,-0.041003085,0.000592373,0.009079863,0.016650060
-0.014819087,-0.005822524,0.021267154,0.039368980,0.039420876,-0.040602541,0.000419960,0.009045931,0.016643472
-0.014822454,0.004869602,0.019937501,0.039557907,0.039681758,-0.040198697,0.000247785,0.009011951,0.016636870
-0.014825821,-0.003838511,0.018113806,0.039647086,0.039933260,-0.039791625,0.000075852,0.008977922,0.016630252
-0.014829190,0.004012566,0.014832296,0.039641038,0.040175274,-0.039381395,-0.000095832,0.008943846,0.016623620
-0.014832560,0.007530481,0.010980981,0.039544280,0.040407688,-0.038968079,-0.000267263,0.008909722,0.016616972
-0.014835931,-0.004049900,0.007320652,0.039361332,0.040630392,-0.038551748,-0.000438435,0.008875551,0.016610310
-0.014839304,0.003264141,0.004854249,0.039096711,0.040843275,-0.038132474,-0.000609341,0.008841333,0.016603632
-0.014842677,0.004155043,0.003894989,0.038754938,0.041046226,-0.037710326,-0.000779978,0.008807068,0.016596940
-0.014846052,-0.000248697,0.003310033,0.038423471,0.041156194,-0.037285377,-0.000950339,0.008772757,0.016590232
-0.014849428,-0.004603951,0.002751910,0.038023401,0.041256496,-0.036857698,-0.001120418,0.008738400,0.016583510
-0.014852805,0.002043624,0.001261935,0.037558760,0.041347509,-0.036427360,-0.001290211,0.008703998,0.016576773
-0.014856183,0.008968222,-0.000438430,0.037033580,0.041429608,-0.035994433,-0.001459711,0.008669550,0.016570020
-0.014859562,-0.003962111,-0.002221573,0.036451892,0.041503169,-0.035558991,-0.001628914,0.008635057,0.016563253
-0.014862942,-0.006948776,-0.003890434,0.035817730,0.041568570,-0.035121102,-0.001797813,0.008600519,0.016556471
-0.014866323,-0.015210537,-0.005230595,0.035135123,0.041626186,-0.034680840,-0.001966403,0.008565937,0.016549674
-0.014869706,-0.000114928,-0.004878863,0.034408105,0.041676393,-0.034238274,-0.002134679,0.008531311,0.016542863
-0.014873090,0.004625424,-0.003307398,0.032821153,0.041719568,-0.033793476,-0.002302635,0.008496641,0.016536036
-0.014876474,0.014149120,-0.001484058,0.031203209,0.041756086,-0.033346518,-0.002470265,0.008461927,0.016529195
-0.014879860,-0.006192892,0.000230512,0.029563664,0.041786324,-0.032897470,-0.002637565,0.008427171,0.016522339
-0.014883247,-0.006450273,0.001876272,0.027911904,0.041810659,-0.032446404,-0.002804528,0.008392371,0.016515468
-0.014886636,-0.011460340,0.003280840,0.026257319,0.041829465,-0.031993391,-0.002971149,0.008357529,0.016508582
-0.014890025,-0.000692708,0.003919869,0.024593562,0.041843121,-0.031538501,-0.003137422,0.008322645,0.016501682
-0.014893415,0.000353794,0.004275090,0.022937417,0.041852000,-0.031081807,-0.003303343,0.008287719,0.016494767
-0.014896807,0.011548040,0.004476271,0.021289932,0.041856481,-0.030623380,-0.003468905,0.008252752,0.016487837
-0.014900200,0.008044890,0.004367193,0.019652157,0.041856939,-0.030163290,-0.003634102,0.008217743,0.016480893
-0.014903593,-0.005606835,0.004397675,0.018025138,0.041853750,-0.029701609,-0.003798931,0.008182694,0.016473933
-0.014906988,-0.009572324,0.004731548,0.016409925,0.041847290,-0.029238408,-0.003963384,0.008147604,0.016466959
-0.014910384,0.000465066,0.006050808,0.014807567,0.041837937,-0.028773758,-0.004127456,0.008112473,0.016459971
-0.014913782,0.005499318,0.007360114,0.013219110,0.041826065,-0.028307731,-0.004291143,0.008077303,0.016452968
-0.014917180,-0.003832902,0.008021441,0.011645605,0.041812051,-0.027840397,-0.004454437,0.008042093,0.016445950
-0.014920579,0.004514748,0.005987086,0.010088099,0.041796271,-0.027371828,-0.004617335,0.008006843,0.016438918
-0.014923980,-0.010944882,0.002742842,0.008547640,0.041779102,-0.026902096,-0.004779830,0.007971555,0.016431871
-0.014927382,-0.006095272,-0.000829171,0.007025278,0.041760919,-0.026431270,-0.004941916,0.007936228,0.016424809
-0.014930784,-0.006579303,-0.004087433,0.005522060,0.041742099,-0.025959423,-0.005103589,0.007900862,0.016417733
-0.014934188,0.006223091,-0.005653367,0.004039035,0.041723018,-0.025486625,-0.005264843,0.007865459,0.016410642
-0.014937593,0.001696565,-0.004912988,0.002577251,0.041704053,-0.025012948,-0.005425672,0.007830018,0.016403537
-0.014940999,-0.008534990,-0.003680274,0.001326485,0.041685578,-0.024538464,-0.005586070,0.007794539,0.016396417
-0.014944407,-0.009574122,-0.001660810,0.000094558,0.041667972,-0.024063242,-0.005746033,0.007759023,0.016389283
-0.014947815,-0.005780419,0.000508133,-0.001121981,0.041651609,-0.023587355,-0.005905554,0.007723471,0.016382134
-0.014951225,0.003047269,0.002628544,-0.002326584,0.041636866,-0.023110873,-0.006064629,0.007687882,0.016374971
-0.014954635,0.012110095,0.004502413,-0.003522701,0.041624119,-0.022633868,-0.006223251,0.007652257,0.016367793
-0.014958047,0.012229281,0.004994691,-0.004396818,0.041613745,-0.022156411,-0.006381416,0.007616596,0.016360601
-0.014961460,0.007706342,0.005119345,-0.005264729,0.041606119,-0.021678573,-0.006539117,0.007580899,0.016353395
-0.014964874,0.003462865,0.004953306,-0.006125261,0.041601618,-0.021200426,-0.006696349,0.007545168,0.016346174
-0.014968289,-0.010579561,0.004573502,-0.006977242,0.041600618,-0.020722040,-0.006853106,0.007509401,0.016338939
-0.014971705,0.011109221,0.003448293,-0.007819501,0.041603495,-0.020243487,-0.007009384,0.007473600,0.016331689
-0.014975122,0.007521034,0.002584373,-0.008650864,0.041610626,-0.019764838,-0.007165176,0.007437765,0.016324425
-0.014978540,0.003865766,0.001770372,-0.009470162,0.041622386,-0.019286164,-0.007320477,0.007401895,0.016317147
-0.014981960,0.000130678,0.001017544,-0.010276220,0.041639152,-0.018807536,-0.007475282,0.007365993,0.016309854
-0.014985380,-0.003696967,0.000337145,-0.011067868,0.041661299,-0.018329026,-0.007629585,0.007330056,0.016302547
-0.014988802,-0.017629906,-0.000259571,-0.011843933,0.041689205,-0.017850704,-0.007783380,0.007294087,0.016295226
-0.014992225,-0.002081191,-0.000361035,-0.012603243,0.041723245,-0.017372642,-0.007936662,0.007258085,0.016287890
-0.014995649,0.008434876,-0.000454428,-0.013344627,0.041763796,-0.016894912,-0.008089425,0.007222051,0.016280541
-0.014999074,0.019003679,-0.000626617,-0.014066912,0.041811233,-0.016417584,-0.008241665,0.007185985,0.016273176
-0.015002500,0.000192597,-0.001446464,-0.014768926,0.041865933,-0.015940729,-0.008393375,0.007149887,0.016265798
-0.015005927,-0.013503011,-0.002410810,-0.015449498,0.041928272,-0.015464419,-0.008544549,0.007113758,0.016258406
-0.015009356,-0.017105791,-0.003498492,-0.016107455,0.041998627,-0.014988725,-0.008695183,0.007077598,0.016250999
-0.015012785,-0.000861648,-0.004465089,-0.016741625,0.042077373,-0.014513718,-0.008845271,0.007041407,0.016243578
-0.015016215,0.015340486,-0.005423150,-0.017350837,0.042164887,-0.014039469,-0.008994807,0.007005185,0.016236143
-0.015019647,0.011055934,-0.005929482,-0.017933918,0.042261544,-0.013566050,-0.009143786,0.006968934,0.016228694
-0.015023080,0.006572566,-0.006273439,-0.018489697,0.042367722,-0.013093531,-0.009292202,0.006932652,0.016221230
-0.015026514,-0.003154232,-0.006411887,-0.019017000,0.042483796,-0.012621984,-0.009440050,0.006896342,0.016213753
-0.015029948,-0.013169079,-0.006729871,-0.018807619,0.042331282,-0.012151481,-0.009587325,0.006860002,0.016206261
-0.015033384,-0.009329730,-0.005949423,-0.018561183,0.042189664,-0.011682091,-0.009734020,0.006823633,0.016198756
-0.015036822,-0.000746501,-0.004968194,-0.018270281,0.042059566,-0.011213887,-0.009880130,0.006787235,0.016191236
-0.015040260,0.002657151,-0.003870695,-0.017927506,0.041941609,-0.010746940,-0.010025650,0.006750810,0.016183702
-0.015043699,0.005957771,-0.002741436,-0.017525448,0.041836418,-0.010281320,-0.010170574,0.006714356,0.016176154
-0.015047139,0.003628492,-0.001061521,-0.017056698,0.041744616,-0.009817100,-0.010314896,0.006677875,0.016168592
-0.015050581,-0.003833683,0.000664084,-0.016513847,0.041666827,-0.009354350,-0.010458612,0.006641367,0.016161016
-0.015054024,0.003664788,0.002333869,-0.015889485,0.041603673,-0.008893141,-0.010601715,0.006604832,0.016153426
-0.015057467,-0.004956874,0.005020645,-0.015176205,0.041555777,-0.008433544,-0.010744201,0.006568270,0.016145823
-0.015060912,0.007150383,0.006867393,-0.014366597,0.041523764,-0.007975632,-0.010886063,0.006531681,0.016138205
-0.015064358,-0.004391484,0.007244189,-0.013453252,0.041508257,-0.007519475,-0.011027296,0.006495067,0.016130573
-0.015067805,-0.005367864,0.006928457,-0.012428760,0.041509878,-0.007065143,-0.011167895,0.006458427,0.016122927
-0.015071253,-0.010822576,0.005956046,-0.011285713,0.041529251,-0.006612709,-0.011307854,0.006421762,0.016115268
-0.015074702,-0.010414635,0.003120459,-0.009159154,0.041567000,-0.006162244,-0.011447167,0.006385072,0.016107594
-0.015078152,0.005236147,-0.000098826,-0.006909310,0.041623747,-0.005713819,-0.011585829,0.006348357,0.016099907
-0.015081603,0.015894760,-0.003464677,-0.004538858,0.041700116,-0.005267504,-0.011723835,0.006311618,0.016092205
-0.015085056,0.001440220,-0.006853990,-0.002050477,0.041796731,-0.004823372,-0.011861178,0.006274854,0.016084490
-0.015088509,-0.008417354,-0.009974765,0.000553155,0.041914214,-0.004381493,-0.011997854,0.006238067,0.016076761
-0.015091964,-0.018853813,-0.013218377,0.003838708,0.042053189,-0.003941938,-0.012133857,0.006201256,0.016069018
-0.015095419,-0.012070759,-0.013790728,0.007213127,0.042214279,-0.003504780,-0.012269182,0.006164423,0.016061261
-0.015098876,-0.005872791,-0.013864070,0.010652705,0.042398108,-0.003070088,-0.012403822,0.006127566,0.016053491
-0.015102334,-0.005090255,-0.013584909,0.014133736,0.042605298,-0.002637934,-0.012537773,0.006090687,0.016045707
-0.015105793,0.000446501,-0.013099749,0.017632513,0.042836473,-0.002208390,-0.012671028,0.006053786,0.016037909
-0.015109253,0.005907132,-0.012555094,0.021125330,0.043092257,-0.001781527,-0.012803583,0.006016863,0.016030097
-0.015112714,-0.004496120,-0.011140040,0.024588480,0.043373273,-0.001357415,-0.012935431,0.005979918,0.016022272
-0.015116176,-0.009135407,-0.010459285,0.027998256,0.043680143,-0.000936126,-0.013066568,0.005942952,0.016014432
-0.015119639,-0.008859321,-0.009641089,0.031330953,0.044013492,-0.000517731,-0.013196988,0.005905965,0.016006579
-0.015123103,0.006103789,-0.008433953,0.034562863,0.044373942,-0.000102301,-0.013326685,0.005868958,0.015998713
-0.015126569,-0.000229802,-0.005831005,0.037670279,0.044762117,0.000310092,-0.013455653,0.005831930,0.015990833
-0.015130035,-0.011865324,-0.002803866,0.040629496,0.045178641,0.000719377,-0.013583888,0.005794883,0.015982939
-0.015133503,0.011565653,0.000302183,0.043416807,0.045624135,0.001125484,-0.013711384,0.005757815,0.015975031
-0.015136971,0.010304847,0.003268572,0.046008505,0.046099225,0.001528340,-0.013838135,0.005720729,0.015967110
-0.015140441,0.019723013,0.005747695,0.048380883,0.046604533,0.001927876,-0.013964135,0.005683623,0.015959175
-0.015143912,0.020190905,0.007391947,0.050510236,0.047140682,0.002324018,-0.014089379,0.005646499,0.015951227
-0.015147383,0.015259433,0.005636559,0.051409862,0.047708296,0.002716697,-0.014213863,0.005609356,0.015943265
-0.015150856,0.006200131,0.003270521,0.052018682,0.048307997,0.003105841,-0.014337579,0.005572196,0.015935289
-0.015154330,-0.007535312,0.000865659,0.052312621,0.048940410,0.003491379,-0.014460523,0.005535017,0.015927300
-0.015157805,0.004760302,-0.002261710,0.052267606,0.049606158,0.003873240,-0.014582689,0.005497822,0.015919298
-0.015161281,-0.000177308,-0.002823785,0.051859561,0.050305864,0.004251352,-0.014704071,0.005460609,0.015911282
-0.015164758,-0.000580987,-0.000418631,0.048488018,0.051470969,0.004625645,-0.014824665,0.005423379,0.015903252
-0.015168237,-0.001177097,0.002524022,0.044742733,0.052667875,0.004996047,-0.014944464,0.005386133,0.015895209
-0.015171716,-0.006692000,0.005720020,0.040637070,0.053893802,0.005362487,-0.015063463,0.005348870,0.015887152
-0.015175196,-0.011852059,0.008885207,0.036184390,0.055145969,0.005724893,-0.015181656,0.005311592,0.015879082
-0.015178678,-0.016383635,0.013223493,0.029909992,0.056421596,0.006083195,-0.015299039,0.005274299,0.015870999
-0.015182160,-0.008158591,0.015088898,0.023334565,0.057717902,0.006437322,-0.015415605,0.005236990,0.015862902
-0.015185644,0.011012059,0.016262652,0.016490737,0.059032107,0.006787201,-0.015531348,0.005199666,0.015854792
-0.015189128,0.026171802,0.016671491,0.009411132,0.060361431,0.007132763,-0.015646265,0.005162328,0.015846668
-0.015192614,0.037364124,0.016242146,0.002128379,0.061703093,0.007473936,-0.015760348,0.005124975,0.015838531
-0.015196101,0.007981860,0.011552003,-0.005324898,0.063054313,0.007810648,-0.015873592,0.005087609,0.015830381
-0.015199589,-0.020768095,0.006364384,-0.012916071,0.064412311,0.008142828,-0.015985993,0.005050229,0.015822217
-0.015203078,-0.009329495,0.001093265,-0.020612514,0.065774307,0.008470406,-0.016097543,0.005012835,0.015814040
-0.015206568,-0.013146095,-0.003847382,-0.028381601,0.067137519,0.008793309,-0.016208239,0.004975429,0.015805850
-0.015210059,-0.012661650,-0.008043581,-0.036190706,0.068499168,0.009111468,-0.016318074,0.004938010,0.015797646
-0.015213551,-0.023319914,-0.011081359,-0.044007202,0.069856473,0.009424810,-0.016427042,0.004900579,0.015789429
-0.015217044,-0.018313066,-0.009798318,-0.051798463,0.071206654,0.009733264,-0.016535139,0.004863136,0.015781199
-0.015220538,-0.009576973,-0.007288372,-0.059531863,0.072546930,0.010036760,-0.016642359,0.004825681,0.015772955
-0.015224033,0.003204073,-0.003897009,-0.067174775,0.073874522,0.010335226,-0.016748696,0.004788214,0.015764699
-0.015227529,-0.002447204,0.002394853,-0.074266158,0.075186649,0.010628591,-0.016854144,0.004750737,0.015756429
-0.015231027,0.005138181,0.004016405,-0.079901345,0.076480530,0.010916783,-0.016958699,0.004713249,0.015748146
-0.015234525,0.000925969,0.002266283,-0.085341867,0.077753385,0.011199732,-0.017062354,0.004675750,0.015739849
-0.015238025,-0.007407244,-0.000595995,-0.090520991,0.079002435,0.011477366,-0.017165105,0.004638241,0.015731540
-0.015241525,-0.005909614,-0.003586156,-0.095371988,0.080224897,0.011749614,-0.017266945,0.004600723,0.015723217
-0.015245027,0.003453327,-0.004802557,-0.099828125,0.081417993,0.012016405,-0.017367869,0.004563195,0.015714882
-0.015248529,0.005796791,-0.004424294,-0.103822672,0.082578941,0.012277667,-0.017467872,0.004525657,0.015706533
-0.015252033,-0.002305479,-0.004088994,-0.107288898,0.083704962,0.012533330,-0.017566948,0.004488111,0.015698171
-0.015255538,0.004305008,-0.004019035,-0.110160071,0.084793275,0.012783323,-0.017665092,0.004450557,0.015689796
-0.015259043,-0.008658537,-0.000446549,-0.111914425,0.085841099,0.013027573,-0.017762297,0.004412994,0.015681407
-0.015262550,0.007612832,0.008203198,-0.112805946,0.086718808,0.013266011,-0.017858559,0.004375423,0.015673006
-0.015266058,-0.004530560,0.014508526,-0.112887388,0.087550573,0.013498564,-0.017953873,0.004337845,0.015664592
-0.015269567,-0.000184577,0.013493944,-0.112084654,0.088333721,0.013725161,-0.018048231,0.004300260,0.015656165
-0.015273077,0.011000072,0.004474654,-0.105059499,0.089065578,0.013945732,-0.018141630,0.004262667,0.015647724
-0.015276588,-0.011312864,-0.006862198,-0.097160079,0.089743469,0.014160205,-0.018234063,0.004225068,0.015639271
-0.015280100,-0.018900834,-0.018652416,-0.088470400,0.090364721,0.014368509,-0.018325525,0.004187463,0.015630805
-0.015283613,-0.002838990,-0.029734104,-0.079074469,0.090926658,0.014570573,-0.018416010,0.004149851,0.015622326
-0.015287127,0.008547929,-0.041695776,-0.069056290,0.091426607,0.014766325,-0.018505514,0.004112234,0.015613833
-0.015290642,0.016372783,-0.055563549,-0.058499869,0.091861893,0.014955695,-0.018594029,0.004074612,0.015605328
-0.015294159,0.018212805,-0.073827908,-0.047489212,0.092229843,0.015138610,-0.018681552,0.004036985,0.015596810
-0.015297676,0.005877696,-0.093211811,-0.036108324,0.092527782,0.015315001,-0.018768076,0.003999353,0.015588279
-0.015301194,-0.002358475,-0.111902583,-0.024441212,0.092753035,0.015484795,-0.018853596,0.003961716,0.015579735
-0.015304714,0.012271949,-0.133581132,-0.012571881,0.092902929,0.015647922,-0.018938106,0.003924075,0.015571179
-0.015308234,-0.025384024,-0.128246682,-0.000345376,0.092974789,0.015804310,-0.019021600,0.003886431,0.015562609
-0.015311755,-0.092851435,-0.118049934,0.011916781,0.092965941,0.015953889,-0.019104075,0.003848783,0.015554027
-0.015315278,-0.139621731,-0.103414138,0.024132031,0.093167040,0.015678057,-0.019060322,0.003811132,0.015545431
-0.015318801,-0.200186362,-0.084762545,0.036217811,0.093281897,0.015395471,-0.019015551,0.003773479,0.015536823
-0.015322326,-0.269036775,-0.062518406,0.048091562,0.093307652,0.015106259,-0.018969768,0.003735822,0.015528202
-0.015325851,-0.330664421,-0.037104973,0.059670723,0.093241446,0.014810547,-0.018922981,0.003698164,0.015519569
-0.015329378,-0.346344060,-0.002162183,0.070872733,0.093080417,0.014508465,-0.018875198,0.003660504,0.015510922
-0.015332906,-0.303318297,0.034637869,0.081615031,0.092821706,0.014200138,-0.018826425,0.003622842,0.015502263
-0.015336434,-0.235613048,0.072406399,0.091815056,0.092462454,0.013885695,-0.018776670,0.003585179,0.015493591
-0.015339964,-0.142254230,0.110254625,0.101390249,0.091999799,0.013565262,-0.018723672,0.003545247,0.015484907
-0.015343495,-0.042267762,0.147293764,0.110258047,0.091430884,0.013238967,-0.018669707,0.003505314,0.015476209
-0.015347027,0.165320442,0.182635034,0.118335890,0.090752846,0.012906938,-0.018614781,0.003465381,0.015467499
-0.015350559,0.381484462,0.215389652,0.125541218,0.089962827,0.012569301,-0.018558903,0.003425448,0.015458777
-0.015354093,0.577198383,0.244668835,0.131791470,0.089057967,0.012226184,-0.018502080,0.003385515,0.015450041
-0.015357628,0.703436287,0.269583802,0.137004084,0.088035405,0.011877715,-0.018444319,0.003345583,0.015441294
-0.015361164,0.746172256,0.289245768,0.141096500,0.086892283,0.011524021,-0.018385626,0.003305651,0.015432533
-0.015364701,0.740012946,0.271730830,0.134217259,0.082797189,0.011165229,-0.018326011,0.003265720,0.015423760
-0.015368239,0.625256005,0.249013568,0.126257439,0.078586696,0.010801467,-0.018265479,0.003225790,0.015414974
-0.015371778,0.400831654,0.222033439,0.117339221,0.074268824,0.010432862,-0.018204038,0.003185862,0.015406176
-0.015375318,0.120670113,0.191729901,0.107584786,0.069851594,0.010059542,-0.018141696,0.003145936,0.015397365
-0.015378859,-0.106298397,0.159042412,0.097116313,0.065343028,0.009681633,-0.018078460,0.003106012,0.015388541
-0.015382401,-0.216143656,0.124910429,0.086055983,0.060751146,0.009299263,-0.018014337,0.003066090,0.015379705
-0.015385944,-0.284935444,0.090273412,0.074525976,0.056083969,0.008912560,-0.017949334,0.003026171,0.015370857
-0.015389488,-0.293743539,0.056070816,0.062648472,0.051349520,0.008521651,-0.017883459,0.002986254,0.015361996
-0.015393033,-0.268637723,0.023242100,0.050545652,0.046555819,0.008126663,-0.017816719,0.002946341,0.015353122
-0.015396580,-0.203412416,-0.004548634,0.038339696,0.041710887,0.007727724,-0.017749122,0.002906431,0.015344236
-0.015400127,-0.131247455,-0.029251875,0.026152785,0.036822745,0.007324961,-0.017680674,0.002866525,0.015335338
-0.015403675,-0.058047317,-0.050093465,0.014107097,0.031899415,0.006918501,-0.017611384,0.002826623,0.015326427
-0.015407224,-0.024716481,-0.066299248,0.002324815,0.026948917,0.006508472,-0.017541257,0.002786725,0.015317504
-0.015410774,0.007840575,-0.077095068,-0.009071882,0.021979273,0.006095002,-0.017470303,0.002746831,0.015308568
-0.015414326,0.000328324,-0.058389776,-0.019886756,0.016998504,0.005678217,-0.017398527,0.002706942,0.015299620
-0.015417878,0.008117014,-0.040609363,-0.030072207,0.012014631,0.005258245,-0.017325938,0.002667059,0.015290660
-0.015421431,0.005123598,-0.022800579,-0.039506580,0.007035676,0.004835214,-0.017252543,0.002627180,0.015281687
-0.015424986,0.003702746,-0.007447892,-0.048068216,0.002069659,0.004409250,-0.017178348,0.002587307,0.015272702
-0.015428541,-0.011352753,0.005526111,-0.055635459,-0.002875399,0.003980481,-0.017103362,0.002547440,0.015263704
-0.015432097,-0.000217810,0.008729176,-0.054649288,-0.007791476,0.003549035,-0.017027591,0.002507579,0.015254694
-0.015435655,0.001498765,0.010316733,-0.052664462,-0.012670551,0.003115038,-0.016951043,0.002467725,0.015245672
-0.015439213,0.003548434,0.010646574,-0.049798379,-0.017504603,0.002678619,-0.016873726,0.002427877,0.015236638
-0.015442772,0.015682660,0.010076491,-0.046168432,-0.022285611,0.002239905,-0.016795646,0.002388036,0.015227591
-0.015446333,-0.001495072,0.008112254,-0.041892020,-0.027005553,0.001799022,-0.016716810,0.002348202,0.015218532
-0.015449894,-0.013973190,0.005851543,-0.037086536,-0.031656409,0.001356099,-0.016637228,0.002308375,0.015209461
-0.015453456,-0.012745096,0.004397017,-0.032064452,-0.036035083,0.000911263,-0.016556904,0.002268557,0.015200378
-0.015457020,-0.001982188,0.003029326,-0.026747746,-0.040328971,0.000464641,-0.016475848,0.002228746,0.015191282
-0.015460584,0.003287140,0.001886119,-0.021253470,-0.044530396,0.000016360,-0.016394065,0.002188943,0.015182175
-0.015464150,0.008034492,0.001143451,-0.015737080,-0.048631680,-0.000433451,-0.016311564,0.002149149,0.015173055
-0.015467716,-0.009259881,0.002389865,-0.010275169,-0.052625145,-0.000884667,-0.016228352,0.002109364,0.015163923
-0.015471284,-0.001292163,0.003428741,-0.004982731,-0.056503113,-0.001337158,-0.016144436,0.002069588,0.015154779
-0.015474852,0.006834650,0.004470273,0.000025236,-0.060257906,-0.001790799,-0.016059823,0.002029822,0.015145622
-0.015478422,0.015431553,0.005310665,0.004633738,-0.063881847,-0.002245461,-0.015974521,0.001990064,0.015136454
-0.015481992,0.001292531,0.004473769,0.006369938,-0.065220060,-0.002701018,-0.015888538,0.001950317,0.015127273
-0.015485564,0.002768539,0.003351777,0.007642261,-0.066424232,-0.003157341,-0.015801879,0.001910580,0.015118081
-0.015489136,-0.010306478,0.002064528,0.008501291,-0.067498856,-0.003614304,-0.015714553,0.001870853,0.015108876
-0.015492710,-0.013098574,0.000731863,0.008997611,-0.068448419,-0.004071778,-0.015626568,0.001831137,0.015099660
-0.015496284,-0.010756710,-0.000543472,0.009181807,-0.069277414,-0.004529638,-0.015537929,0.001791432,0.015090431
-0.015499859,0.011459963,-0.001548540,0.009104461,-0.069990331,-0.004987754,-0.015448646,0.001751739,0.015081190
-0.015503436,0.013226795,-0.002004904,0.008816158,-0.070591660,-0.005446001,-0.015358724,0.001712056,0.015071937
-0.015507013,0.009638757,-0.002053750,0.008367482,-0.071085890,-0.005904250,-0.015268171,0.001672386,0.015062673
-0.015510592,0.000708224,-0.001753667,0.007809018,-0.071477514,-0.006362374,-0.015176995,0.001632727,0.015053396
-0.015514171,-0.008552428,-0.001163245,0.007191348,-0.071771020,-0.006820246,-0.015085203,0.001593081,0.015044107
-0.015517752,0.006155319,0.000355068,0.006582774,-0.071970900,-0.007277739,-0.014992803,0.001553447,0.015034807
-0.015521333,-0.003677850,0.000774974,0.006523280,-0.072081643,-0.007734724,-0.014899801,0.001513826,0.015025494
-0.015524916,0.003036317,-0.000453794,0.006479246,-0.072107741,-0.008191075,-0.014806204,0.001474219,0.015016170
-0.015528499,-0.001413726,-0.000601803,0.006437161,-0.072053683,-0.008646665,-0.014712021,0.001434624,0.015006834
-0.015532084,-0.006229902,-0.000449246,0.006383508,-0.071923960,-0.009101365,-0.014617259,0.001395044,0.014997485
-0.015535669,-0.002213026,0.000956325,0.006171025,-0.071723062,-0.009555049,-0.014521924,0.001355477,0.014988125
-0.015539256,0.006337618,0.002784139,0.005934135,-0.071455480,-0.010007588,-0.014426025,0.001315924,0.014978754
-0.015542843,0.004605267,0.004854654,0.005673516,-0.071125703,-0.010458857,-0.014329568,0.001276386,0.014969370
-0.015546432,0.007773160,0.006988324,0.005389842,-0.070738223,-0.010908727,-0.014232560,0.001236863,0.014959974
-0.015550021,0.011024537,0.009005605,0.005083790,-0.070484544,-0.011170056,-0.014135010,0.001197355,0.014950567
-0.015553611,-0.005203900,0.010473489,0.004756033,-0.070182072,-0.011429802,-0.014036924,0.001157862,0.014941148
-0.015557203,-0.011175873,0.011659393,0.004407249,-0.069835226,-0.011687908,-0.013938310,0.001118384,0.014931717
-0.015560795,0.008257604,0.012418025,0.004038112,-0.069448426,-0.011944319,-0.013839176,0.001078922,0.014922275
-0.015564389,0.007811055,0.013038556,0.003649298,-0.069026091,-0.012198976,-0.013739527,0.001039477,0.014912820
-0.015567983,0.012358251,0.013650909,0.003241482,-0.068572642,-0.012451824,-0.013639372,0.001000047,0.014903354
-0.015571578,0.011631263,0.014526708,0.002815339,-0.068092497,-0.012702805,-0.013538718,0.000960634,0.014893876
-0.015575175,-0.014204626,0.015504365,0.002371546,-0.067590077,-0.012951864,-0.013437573,0.000921239,0.014884387
-0.015578772,-0.010116145,0.016554303,0.001910778,-0.067069802,-0.013198942,-0.013335943,0.000881860,0.014874886
-0.015582370,-0.001031293,0.017608215,0.001433710,-0.066536090,-0.013443984,-0.013233836,0.000842499,0.014865373
-0.015585970,0.003131617,0.018588110,0.000941017,-0.065993363,-0.013686933,-0.013131260,0.000803155,0.014855849
-0.015589570,0.017454270,0.019415996,0.000433375,-0.065446038,-0.013927731,-0.013028221,0.000763829,0.014846313
-0.015593171,0.002774740,0.019089984,0.000017040,-0.064836607,-0.014166323,-0.012924727,0.000724522,0.014836765
-0.015596773,-0.001686203,0.018554398,-0.000868073,-0.063770129,-0.014402652,-0.012820785,0.000685233,0.014827206
-0.015600377,-0.015951399,0.017829664,-0.001759785,-0.062706416,-0.014636660,-0.012716403,0.000645963,0.014817635
-0.015603981,-0.004839606,0.016732123,-0.002656282,-0.061644918,-0.014868291,-0.012611588,0.000606712,0.014808053
-0.015607586,0.006396752,0.015511785,-0.003555751,-0.060585081,-0.015097489,-0.012506347,0.000567480,0.014798459
-0.015611192,0.007709334,0.014214575,-0.004456378,-0.059526354,-0.015324196,-0.012400688,0.000528268,0.014788853
-0.015614799,0.014049798,0.012886419,-0.005356348,-0.058468186,-0.015548356,-0.012294617,0.000489076,0.014779236
-0.015618407,-0.004477437,0.011420483,-0.006253848,-0.057410025,-0.015769913,-0.012188142,0.000449904,0.014769608
-0.015622017,-0.013014061,0.009956041,-0.007301642,-0.056196739,-0.015988808,-0.012081271,0.000410752,0.014759968
-0.015625627,-0.011549645,0.008480250,-0.008342468,-0.054983227,-0.016204987,-0.011974011,0.000371621,0.014750317
-0.015629238,0.004923667,0.006982836,-0.009373643,-0.053769805,-0.016418391,-0.011866369,0.000332511,0.014740654
-0.015632850,0.011413091,0.005454170,-0.010392481,-0.052556791,-0.016628965,-0.011758353,0.000293422,0.014730979
-0.015636463,0.003173928,0.003636534,-0.011396301,-0.051344504,-0.016836651,-0.011649969,0.000254354,0.014721294
-0.015640077,-0.005046176,0.001779867,-0.012382419,-0.050133261,-0.017041393,-0.011541225,0.000215308,0.014711597
-0.015643692,-0.008251490,-0.000113977,-0.013348149,-0.048923379,-0.017243134,-0.011432128,0.000176284,0.014701888
-0.015647307,-0.006314533,-0.002174896,-0.014290810,-0.047715178,-0.017441818,-0.011322687,0.000137283,0.014692168
-0.015650924,0.005794172,-0.004434781,-0.015207718,-0.046508974,-0.017637387,-0.011212907,0.000098304,0.014682437
-0.015654542,0.003284445,-0.007105867,-0.016096188,-0.045305085,-0.017829785,-0.011102797,0.000059348,0.014672694
-0.015658161,-0.003939512,-0.010094774,-0.016953538,-0.044103830,-0.018018955,-0.010992363,0.000020415,0.014662940
-0.015661781,0.004923915,-0.014205529,-0.017777083,-0.042905526,-0.018204841,-0.010881613,-0.000018495,0.014653175
-0.015665402,-0.007316469,-0.017249354,-0.018564140,-0.041710491,-0.018387385,-0.010770555,-0.000057381,0.014643399
-0.015669023,-0.000401894,-0.019487433,-0.019312025,-0.040519043,-0.018566531,-0.010659195,-0.000096243,0.014633611
-0.015672646,0.001276832,-0.021531374,-0.020018055,-0.039331500,-0.018742223,-0.010547542,-0.000135081,0.014623812
-0.015676270,0.012982270,-0.023646156,-0.020679546,-0.038148179,-0.018914403,-0.010435601,-0.000173895,0.014614001
-0.015679894,0.005672283,-0.026792054,-0.021293815,-0.036969398,-0.019083015,-0.010323381,-0.000212684,0.014604180
-0.015683520,-0.011414073,-0.030210541,-0.021858177,-0.035795476,-0.019248002,-0.010210889,-0.000251448,0.014594347
-0.015687146,-0.013342440,-0.033838390,-0.022369949,-0.034626730,-0.019409307,-0.010098132,-0.000290187,0.014584503
-0.015690774,-0.005394830,-0.037396005,-0.022826448,-0.033463477,-0.019566874,-0.009985118,-0.000328900,0.014574648
-0.015694402,0.012531273,-0.040988318,-0.023224990,-0.032306036,-0.019720646,-0.009871853,-0.000367587,0.014564782
-0.015698032,0.005128271,-0.044310145,-0.023562891,-0.031154725,-0.019870566,-0.009758346,-0.000406248,0.014554904
-0.015701662,0.002599287,-0.047567025,-0.023837467,-0.030009862,-0.020016577,-0.009644603,-0.000444883,0.014545015
-0.015705294,-0.000046303,-0.050770750,-0.024046036,-0.028871763,-0.020158624,-0.009530632,-0.000483492,0.014535116
-0.015708926,-0.012799123,-0.053933111,-0.024185913,-0.027740748,-0.020296648,-0.009416440,-0.000522073,0.014525205
-0.015712559,-0.001072296,-0.056643401,-0.024254415,-0.026617133,-0.020430593,-0.009302035,-0.000560628,0.014515283
-0.015716194,0.005531056,-0.059300914,-0.024248857,-0.025501238,-0.020560403,-0.009187423,-0.000599155,0.014505350
-0.015719829,0.011985315,-0.061882445,-0.024166558,-0.024393379,-0.020686021,-0.009072613,-0.000637654,0.014495406
-0.015723465,0.007245348,-0.063345279,-0.024004832,-0.023293874,-0.020807390,-0.008957611,-0.000676126,0.014485451
-0.015727102,-0.007785239,-0.065986893,-0.022369540,-0.022203042,-0.020924453,-0.008842424,-0.000714569,0.014475484
-0.015730740,-0.013222350,-0.068293505,-0.020658291,-0.021121200,-0.021037154,-0.008727061,-0.000752984,0.014465507
-0.015734379,-0.000846129,-0.068478554,-0.018877236,-0.020048666,-0.021145436,-0.008611528,-0.000791370,0.014455519
-0.015738019,0.005906336,-0.068098530,-0.017032526,-0.018985757,-0.021249242,-0.008495832,-0.000829727,0.014445520
-0.015741660,0.006933719,-0.067045689,-0.015130313,-0.017932793,-0.021348515,-0.008379982,-0.000868054,0.014435510
-0.015745302,0.007134695,-0.065212284,-0.013176750,-0.016890090,-0.021443199,-0.008263984,-0.000906353,0.014425489
-0.015748945,0.006407938,-0.062490571,-0.011177987,-0.015857966,-0.021533238,-0.008147846,-0.000944621,0.014415456
-0.015752588,-0.007971733,-0.056148947,-0.009140177,-0.014836740,-0.021618573,-0.008031574,-0.000982859,0.014405414
-0.015756233,0.010076745,-0.047262057,-0.007069472,-0.013826728,-0.021699149,-0.007915177,-0.001021067,0.014395360
-0.015759879,0.012467253,-0.037737360,-0.004972023,-0.012828250,-0.021774909,-0.007798661,-0.001059244,0.014385295
-0.015763526,0.024477837,-0.027846485,-0.002853981,-0.011841622,-0.021845795,-0.007682035,-0.001097391,0.014375219
-0.015767173,0.016386547,-0.017861060,-0.000721500,-0.010867163,-0.021911753,-0.007565304,-0.001135506,0.014365133
-0.015770822,0.008471431,-0.008052713,0.001419270,-0.009905190,-0.021957436,-0.007463765,-0.001173589,0.014355035
-0.015774471,-0.008674004,0.000991468,0.003562176,-0.008956021,-0.021998079,-0.007362134,-0.001211641,0.014344927
-0.015778122,0.006267175,0.007960971,0.005701068,-0.008019975,-0.022033626,-0.007260416,-0.001249661,0.014334808
-0.015781773,0.012023682,0.014133501,0.007829792,-0.007097368,-0.022064024,-0.007158617,-0.001287649,0.014324679
-0.015785425,0.013660809,0.019450186,0.009942198,-0.006188519,-0.022089217,-0.007056742,-0.001325604,0.014314538
-0.015789078,0.003383277,0.021712726,0.012032133,-0.005293746,-0.022109152,-0.006954796,-0.001363527,0.014304387
-0.015792733,-0.011171487,0.023290112,0.014093446,-0.004413367,-0.022123775,-0.006852783,-0.001401416,0.014294225
-0.015796388,-0.013868882,0.023054164,0.016119985,-0.003547698,-0.022133029,-0.006750709,-0.001439272,0.014284052
-0.015800044,-0.006143318,0.022445713,0.018105598,-0.002697059,-0.022136862,-0.006648579,-0.001477095,0.014273868
-0.015803701,0.001928543,0.021547840,0.020044133,-0.001861767,-0.022135219,-0.006546397,-0.001514883,0.014263674
-0.015807359,0.010270036,0.020443628,0.021929439,-0.001042139,-0.022128045,-0.006444169,-0.001552638,0.014253469
-0.015811018,0.009293775,0.018726887,0.023755364,-0.000238495,-0.022115286,-0.006341900,-0.001590358,0.014243254
-0.015814678,-0.011309104,0.016712897,0.025515756,0.000548850,-0.022096888,-0.006239594,-0.001628043,0.014233027
-0.015818338,-0.010643784,0.013776567,0.026941158,0.001319575,-0.022072795,-0.006137258,-0.001665694,0.014222790
-0.015822000,-0.004600682,0.010548994,0.028291161,0.002073365,-0.022042955,-0.006034895,-0.001703309,0.014212543
-0.015825663,0.006644188,0.007210174,0.029562048,0.002809901,-0.022007311,-0.005932511,-0.001740889,0.014202285
-0.015829326,0.007914814,0.003940104,0.030750104,0.003528864,-0.021965810,-0.005830111,-0.001778433,0.014192016
-0.015832991,0.019035183,0.000918781,0.031851613,0.004229938,-0.021918398,-0.005727700,-0.001815941,0.014181737
-0.015836656,-0.004272239,-0.002572279,0.032862859,0.004912805,-0.021865019,-0.005625283,-0.001853412,0.014171447
-0.015840323,-0.013762493,-0.004774050,0.033780128,0.005577145,-0.021805620,-0.005522865,-0.001890847,0.014161147
-0.015843990,0.007229058,-0.001323146,0.033575663,0.006222643,-0.021740146,-0.005420450,-0.001928246,0.014150836
-0.015847658,-0.003617656,0.004055222,0.033295014,0.006848980,-0.021668542,-0.005318045,-0.001965607,0.014140514
-0.015851327,0.005729081,0.004308096,0.032959692,0.007455837,-0.021590755,-0.005215654,-0.002002931,0.014130182
-0.015854997,0.007878015,0.001833126,0.032563568,0.008042898,-0.021506729,-0.005113281,-0.002040217,0.014119840
-0.015858669,-0.009105293,-0.001476076,0.032147737,0.008609845,-0.021416411,-0.005010933,-0.002077465,0.014109487
-0.015862340,-0.011461092,-0.004392449,0.031725656,0.009156358,-0.021319746,-0.004908614,-0.002114675,0.014099124
-0.015866013,0.003128950,-0.004022592,0.031085860,0.009682122,-0.021216679,-0.004806329,-0.002151847,0.014088750
-0.015869687,0.006842498,-0.002762199,0.030446647,0.010186817,-0.021107156,-0.004704083,-0.002188979,0.014078366
-0.015873362,-0.004819130,-0.001105698,0.029801393,0.010670127,-0.020991123,-0.004601881,-0.002226073,0.014067971
-0.015877038,0.004783491,-0.000685621,0.029639661,0.010635545,-0.020868525,-0.004499728,-0.002263128,0.014057566
-0.015880714,-0.006337715,0.000492999,0.029457906,0.010579676,-0.020739308,-0.004397630,-0.002300143,0.014047151
-0.015884392,-0.007615066,0.001869375,0.029248770,0.010502937,-0.020603417,-0.004295590,-0.002337118,0.014036725
-0.015888070,-0.004083691,0.003485526,0.029004892,0.010405744,-0.020460798,-0.004193615,-0.002374054,0.014026289
-0.015891750,0.009514382,0.005090373,0.028718915,0.010288514,-0.020311397,-0.004091709,-0.002410948,0.014015842
-0.015895430,0.013437125,0.006432835,0.028383480,0.010151665,-0.020155158,-0.003989877,-0.002447803,0.014005386
-0.015899111,-0.000852834,0.006423679,0.027624727,0.009995612,-0.019992028,-0.003888125,-0.002484616,0.013994919
-0.015902793,-0.004574254,0.005910163,0.026813691,0.009820772,-0.019821953,-0.003786457,-0.002521388,0.013984441
-0.015906476,-0.012741240,0.004901392,0.025954904,0.009627563,-0.019644877,-0.003684878,-0.002558119,0.013973954
-0.015910160,-0.005176983,0.003215557,0.025052900,0.009416400,-0.019460746,-0.003583393,-0.002594808,0.013963456
-0.015913845,0.012630402,0.001335774,0.024112211,0.009187702,-0.019269507,-0.003482008,-0.002631455,0.013952948
-0.015917531,0.000634485,-0.000696525,0.023137372,0.008941884,-0.019071103,-0.003380727,-0.002668060,0.013942430
-0.015921218,0.003291926,-0.002343003,0.022132914,0.008170108,-0.018356228,-0.003279556,-0.002704623,0.013931901
-0.015924905,0.005310160,-0.003316092,0.021103372,0.007382332,-0.017634365,-0.003178499,-0.002741143,0.013921363
-0.015928594,-0.008603380,-0.003328225,0.020053277,0.006579258,-0.016905746,-0.003077562,-0.002777619,0.013910814
-0.015932284,0.004838509,-0.000442786,0.018758344,0.005761587,-0.016170603,-0.002976748,-0.002814053,0.013900255
-0.015935974,-0.002450576,0.003188239,0.017456498,0.004930023,-0.015429166,-0.002876065,-0.002850442,0.013889686
-0.015939665,0.003951589,0.003038997,0.016250899,0.004085267,-0.014681667,-0.002775516,-0.002886788,0.013879106
-0.015943358,-0.003117859,0.001362526,0.015050905,0.003228023,-0.013928336,-0.002675106,-0.002923090,0.013868517
-0.015947051,-0.009528082,-0.000975889,0.013859929,0.002358991,-0.013169404,-0.002574841,-0.002959348,0.013857918
-0.015950745,-0.010839003,-0.003420206,0.012681383,0.001478874,-0.012405103,-0.002474726,-0.002995560,0.013847308
-0.015954440,-0.003341208,-0.004683718,0.011518681,0.000588375,-0.011635664,-0.002374765,-0.003031728,0.013836688
-0.015958136,-0.001247939,-0.005557061,0.010375235,-0.000311804,-0.010861317,-0.002274963,-0.003067851,0.013826059
-0.015961832,0.005496895,-0.006100207,0.009254458,-0.001220962,-0.010082295,-0.002175327,-0.003103928,0.013815419
-0.015965530,0.011949388,-0.006373126,0.008159762,-0.002138395,-0.009298827,-0.002075860,-0.003139960,0.013804769
-0.015969229,-0.006947085,-0.006323075,0.007094560,-0.003063401,-0.008511145,-0.001976567,-0.003175945,0.013794110
-0.015972928,-0.011057162,-0.006089294,0.006062264,-0.003995279,-0.007719480,-0.001877454,-0.003211884,0.013783440
-0.015976629,-0.005990087,-0.005066418,0.005066288,-0.004933326,-0.006924064,-0.001778526,-0.003247777,0.013772760
-0.015980330,0.003867330,-0.004067213,0.004305740,-0.005876839,-0.006125126,-0.001679788,-0.003283623,0.013762071
-0.015984032,0.008496389,-0.002877962,0.003585138,-0.006825117,-0.005322899,-0.001581245,-0.003319422,0.013751371
-0.015987735,0.007159072,-0.000761329,0.002904696,-0.007777457,-0.004517613,-0.001482901,-0.003355173,0.013740662
-0.015991439,-0.009259904,0.001397289,0.002264629,-0.008733157,-0.003709500,-0.001384762,-0.003390877,0.013729942
-0.015995144,-0.010595140,0.003431812,0.001665151,-0.009691514,-0.002898790,-0.001286833,-0.003426533,0.013719213
-0.015998850,-0.011068130,0.004563054,0.001106475,-0.010651827,-0.002085714,-0.001189118,-0.003462141,0.013708474
-0.016002557,0.013802051,0.005309409,0.000588816,-0.011613393,-0.001270505,-0.001091624,-0.003497700,0.013697725
-0.016006265,0.004995517,0.004518560,0.000283911,-0.012575510,-0.000453391,-0.000994354,-0.003533211,0.013686966
-0.016009973,0.001536720,0.003341131,0.000016215,-0.013537476,0.000365394,-0.000897315,-0.003568673,0.013676197
-0.016013683,-0.001663804,0.001870144,-0.000218292,-0.014498588,0.001185621,-0.000800510,-0.003604085,0.013665419
-0.016017393,-0.014695521,0.000198618,-0.000423632,-0.015458144,0.002007057,-0.000703945,-0.003639448,0.013654631
-0.016021104,0.007140371,-0.001368694,-0.000603827,-0.016415443,0.002829473,-0.000607625,-0.003674761,0.013643833
-0.016024816,0.013945742,-0.002930107,-0.000762898,-0.017369780,0.003652637,-0.000511555,-0.003710024,0.013633025
-0.016028529,0.015555462,-0.004316936,-0.000904866,-0.018320455,0.004476317,-0.000415740,-0.003745237,0.013622207
-0.016032243,0.011940478,-0.005496572,-0.001033753,-0.019266766,0.005300283,-0.000320185,-0.003780400,0.013611380
-0.016035958,-0.006983531,-0.006381141,-0.001153580,-0.020208009,0.006124304,-0.000224895,-0.003815511,0.013600543
-0.016039674,-0.011300884,-0.006882767,-0.001268369,-0.021143483,0.006948149,-0.000129875,-0.003850571,0.013589696
-0.016043390,-0.007024537,-0.006216491,-0.001001165,-0.022221909,0.007771586,-0.000035131,-0.003885580,0.013578840
-0.016047108,-0.003131993,-0.005166777,-0.000738141,-0.023294915,0.008594385,0.000059334,-0.003920537,0.013567974
-0.016050826,0.005470611,-0.003821003,-0.000484492,-0.024363551,0.009416315,0.000153514,-0.003955443,0.013557098
-0.016054546,-0.001959955,-0.001429456,-0.000245415,-0.025428868,0.010237143,0.000247403,-0.003990296,0.013546213
-0.016058266,-0.004372432,0.000963086,-0.000026106,-0.026491919,0.011056640,0.000340997,-0.004025096,0.013535318
-0.016061987,-0.005652667,0.002248955,0.000013017,-0.027398530,0.011874574,0.000434291,-0.004059844,0.013524413
-0.016065709,-0.006657994,0.003291968,0.000023498,-0.028306495,0.012690715,0.000527280,-0.004094539,0.013513499
-0.016069432,0.007654238,0.004055956,0.000001658,-0.029218381,0.013504830,0.000619959,-0.004129181,0.013502575
-0.016073156,0.007806161,0.003898126,0.000081384,-0.030147177,0.014316690,0.000712322,-0.004163769,0.013491642
-0.016076880,0.003237831,0.003494749,-0.000511165,-0.030144379,0.014835305,0.000804365,-0.004198303,0.013480699
-0.016080606,-0.006131214,0.002915470,-0.001143872,-0.030121934,0.015351332,0.000896083,-0.004232783,0.013469746
-0.016084332,-0.010381437,0.002229935,-0.001820021,-0.030065635,0.015864667,0.000987471,-0.004267209,0.013458784
-0.016088059,-0.009563001,0.001477490,-0.002542897,-0.029961274,0.016375208,0.001078523,-0.004301580,0.013447813
-0.016091788,0.001216550,0.000754861,-0.003315782,-0.029794642,0.016882853,0.001169235,-0.004335896,0.013436832
-0.016095517,0.011879973,0.000128474,-0.004141962,-0.029551530,0.017387499,0.001259601,-0.004370158,0.013425841
-0.016099247,-0.002642450,-0.000342770,-0.005024720,-0.029217732,0.017889045,0.001349617,-0.004404363,0.013414842
-0.016102977,-0.002390333,-0.000630075,-0.006704918,-0.028041458,0.018387388,0.001439278,-0.004438513,0.013403832
-0.016106709,-0.012395763,-0.000809783,-0.008333824,-0.026762909,0.018882425,0.001528578,-0.004472607,0.013392813
-0.016110442,-0.008631962,0.000160075,-0.009977455,-0.025384703,0.019374056,0.001617513,-0.004506645,0.013381785
-0.016114175,-0.000086691,0.001238395,-0.011604222,-0.023909460,0.019862176,0.001706077,-0.004540626,0.013370748
-0.016117910,0.008311153,0.002325209,-0.013182532,-0.022339799,0.020346684,0.001794266,-0.004574551,0.013359701
-0.016121645,-0.003367431,0.003320652,-0.014680793,-0.020678341,0.020827478,0.001882074,-0.004608418,0.013348645
-0.016125381,-0.005051865,0.004125281,-0.016067413,-0.018927704,0.021304456,0.001969497,-0.004642228,0.013337579
-0.016129118,-0.006300417,0.004268499,-0.017310802,-0.017090508,0.021777515,0.002056529,-0.004675981,0.013326504
-0.016132856,0.002813675,0.003794679,-0.018379366,-0.015169372,0.022246552,0.002143166,-0.004709675,0.013315420
-0.016136595,-0.002440457,0.002405823,-0.019241515,-0.013166917,0.022711467,0.002229402,-0.004743312,0.013304326
-0.016140334,0.004178170,-0.002336366,-0.018697208,-0.011085761,0.023172155,0.002315232,-0.004776890,0.013293224
-0.016144075,-0.000493143,-0.006087905,-0.017925001,-0.008928525,0.023628516,0.002400652,-0.004810409,0.013282111
-0.016147816,-0.010927422,-0.010272226,-0.016025710,-0.006697827,0.024080447,0.002485656,-0.004843870,0.013270990
-0.016151558,-0.015375273,-0.010686673,-0.013948658,-0.004396288,0.024527845,0.002570240,-0.004877271,0.013259860
-0.016155301,-0.016049873,-0.010075312,-0.011733877,-0.002026527,0.024970608,0.002654398,-0.004910613,0.013248720
-0.016159045,-0.012717540,-0.008629067,-0.009421398,0.000408837,0.025408635,0.002738125,-0.004943895,0.013237571
-0.016162790,-0.005144594,-0.006538861,-0.007051251,0.002907185,0.025841822,0.002821416,-0.004977117,0.013226413
-0.016166536,0.006902645,-0.003995616,-0.004663467,0.005465895,0.026270068,0.002904266,-0.005010279,0.013215245
-0.016170283,-0.006737024,-0.000795374,-0.002298077,0.008082350,0.026693270,0.002986671,-0.005043380,0.013204069
-0.016174030,-0.009531568,0.001572590,0.000004888,0.010753929,0.027111326,0.003068625,-0.005076420,0.013192883
-0.016177778,-0.007156641,0.003826685,0.002205398,0.013478013,0.027524133,0.003150123,-0.005109400,0.013181688
-0.016181527,-0.004515133,0.005912561,0.004263421,0.016251983,0.027931590,0.003231160,-0.005142317,0.013170484
-0.016185278,-0.001509935,0.007775867,0.006138927,0.019073218,0.028333594,0.003311732,-0.005175174,0.013159271
-0.016189028,-0.008043941,0.009362251,0.007791885,0.021939100,0.028730043,0.003391832,-0.005207968,0.013148049
-0.016192780,-0.014020041,0.010617363,0.009182264,0.024847008,0.029120835,0.003471457,-0.005240700,0.013136818
-0.016196533,-0.009341127,0.011486851,0.010270033,0.027794324,0.029505866,0.003550600,-0.005273370,0.013125578
-0.016200286,-0.008910091,0.011916365,0.011015161,0.030778427,0.029885036,0.003629258,-0.005305977,0.013114329
-0.016204041,-0.002629824,0.011851554,0.011377618,0.033796699,0.030258242,0.003707425,-0.005338521,0.013103070
-0.016207796,0.009596782,0.011238066,0.011317373,0.036846519,0.030625381,0.003785096,-0.005371002,0.013091803
-0.016211552,0.017866836,0.010021551,0.010794394,0.039925268,0.030986352,0.003862265,-0.005403419,0.013080527
-0.016215309,-0.004160252,0.006339562,0.008014444,0.043030327,0.031341051,0.003938929,-0.005435773,0.013069242
-0.016219067,-0.006075859,0.002786764,0.004976964,0.046159076,0.031689378,0.004015082,-0.005468062,0.013057948
-0.016222826,0.002238291,-0.000997629,0.001927187,0.049308895,0.032031228,0.004090718,-0.005500287,0.013046645
-0.016226585,-0.003243683,0.000860796,-0.003457183,0.052953658,0.032366501,0.004165834,-0.005532448,0.013035333
-0.016230346,0.008033152,-0.002012236,-0.004573495,0.055310162,0.032695094,0.004240423,-0.005564543,0.013024012
-0.016234107,-0.000058804,-0.005999668,-0.005202838,0.057670145,0.033016904,0.004314481,-0.005596574,0.013012682
-0.016237869,-0.002762307,-0.010833580,-0.005365576,0.060028917,0.033331830,0.004388003,-0.005628539,0.013001343
-0.016241632,-0.025297818,-0.016268351,-0.005082074,0.062381788,0.033639769,0.004460984,-0.005660438,0.012989996
-0.016245396,-0.023448337,-0.021495818,-0.004372698,0.064724066,0.033940618,0.004533419,-0.005692272,0.012978639
-0.016249161,-0.011497024,-0.027207658,-0.003257811,0.067051062,0.034234276,0.004605302,-0.005724039,0.012967274
-0.016252926,0.005710417,-0.033533004,-0.001757779,0.069358083,0.034520641,0.004676629,-0.005755740,0.012955900
-0.016256692,0.033328285,-0.040600993,0.000107033,0.071640441,0.034799609,0.004747395,-0.005787374,0.012944517
-0.016260460,0.041510876,-0.048540759,0.002316261,0.073893444,0.035071080,0.004817595,-0.005818941,0.012933126
-0.016264228,0.038888831,-0.060957780,0.004849541,0.076112401,0.035334950,0.004887223,-0.005850440,0.012921725
-0.016267997,0.011852332,-0.074217076,0.007686506,0.078292621,0.035591116,0.004956275,-0.005881872,0.012910316
-0.016271767,0.015267901,-0.088160006,0.010806793,0.080429415,0.035839478,0.005024746,-0.005913237,0.012898898
-0.016275537,0.014002063,-0.102627933,0.014190037,0.082518091,0.036079933,0.005092630,-0.005944533,0.012887472
-0.016279309,0.017921341,-0.117462218,0.017815873,0.084553958,0.036312378,0.005159923,-0.005975760,0.012876037
-0.016283081,0.006892258,-0.132504221,0.021663935,0.086532326,0.036536711,0.005226620,-0.006006920,0.012864593
-0.016286854,0.000781340,-0.147595304,0.025713860,0.088448505,0.036752830,0.005292715,-0.006038010,0.012853140
-0.016290628,-0.010544891,-0.162576828,0.029945283,0.090297803,0.036960633,0.005358204,-0.006069031,0.012841679
-0.016294403,0.008007195,-0.177517261,0.034337838,0.092075530,0.037160017,0.005423081,-0.006099982,0.012830209
-0.016298179,0.008554683,-0.189508525,0.038871161,0.093776995,0.037350880,0.005487341,-0.006130864,0.012818730
-0.016301955,0.013485210,-0.200913094,0.043524888,0.095397507,0.037533119,0.005550981,-0.006161676,0.012807243
-0.016305733,-0.002198558,-0.211708472,0.048278653,0.096932377,0.037706634,0.005613993,-0.006192418,0.012795747
-0.016309511,-0.013493956,-0.221872162,0.053112091,0.098376912,0.037871320,0.005676374,-0.006223089,0.012784243
-0.016313290,-0.001519680,-0.230260305,0.058004839,0.099726423,0.038027077,0.005738119,-0.006253689,0.012772730
-0.016317070,0.014977269,-0.238100738,0.062936531,0.100976219,0.038173801,0.005799222,-0.006284218,0.012761208
-0.016320851,0.011229184,-0.245600592,0.067886802,0.102121608,0.038311391,0.005859678,-0.006314676,0.012749678
-0.016324633,0.007335275,-0.252833912,0.072835287,0.103157901,0.038439743,0.005919483,-0.006345062,0.012738140
-0.016328415,-0.001504595,-0.259975401,0.077761622,0.104080407,0.038558757,0.005978631,-0.006375377,0.012726593
-0.016332198,-0.010090560,-0.267199760,0.082645442,0.104884434,0.038668330,0.006037117,-0.006405619,0.012715037
-0.016335982,-0.013222757,-0.274681694,0.087466383,0.105565293,0.038768358,0.006094937,-0.006435789,0.012703473
-0.016339767,-0.000786513,-0.282510709,0.092204079,0.106118292,0.038858741,0.006152085,-0.006465886,0.012691901
-0.016343553,0.007634923,-0.291078396,0.096838165,0.106538742,0.038939376,0.006208556,-0.006495910,0.012680320
-0.016347340,0.011025536,-0.299343576,0.101348277,0.106821950,0.039010160,0.006264345,-0.006525861,0.012668731
-0.016351127,-0.000235268,-0.307660495,0.105714051,0.106963227,0.039070992,0.006319448,-0.006555738,0.012657133
-0.016354916,-0.002115654,-0.315035822,0.109915121,0.106957882,0.039121768,0.006373859,-0.006585542,0.012645527
-0.016358705,0.007682157,-0.323742178,0.113931122,0.107422443,0.038605872,0.006345626,-0.006598028,0.012633913
-0.016362495,0.014673582,-0.329269812,0.117741690,0.107730693,0.038080013,0.006316701,-0.006610440,0.012622290
-0.016366286,0.032639979,-0.331277532,0.122229067,0.107877636,0.037544385,0.006287092,-0.006622778,0.012610659
-0.016370077,-0.006203194,-0.311042264,0.126459523,0.107858273,0.036999183,0.006256802,-0.006635042,0.012599019
-0.016373870,-0.054588311,-0.285795713,0.130401932,0.107667607,0.036444601,0.006225838,-0.006647233,0.012587371
-0.016377663,-0.101813652,-0.256203680,0.134025173,0.107300641,0.035880833,0.006194206,-0.006659351,0.012575715
-0.016381457,-0.142177495,-0.222931962,0.137298120,0.106752377,0.035308073,0.006161911,-0.006671395,0.012564051
-0.016385252,-0.204978118,-0.186646362,0.140189651,0.106017818,0.034726516,0.006128959,-0.006683367,0.012552378
-0.016389048,-0.274513801,-0.148012678,0.142668641,0.105091966,0.034136355,0.006095355,-0.006695265,0.012540697
-0.016392845,-0.340082822,-0.107696709,0.144703966,0.103969823,0.033537786,0.006061105,-0.006707091,0.012529008
-0.016396642,-0.410983460,-0.066364256,0.150248622,0.098662274,0.032931003,0.006026215,-0.006718844,0.012517311
-0.016400440,-0.486513995,-0.024681119,0.155269505,0.093166301,0.032316199,0.005990691,-0.006730525,0.012505605
-0.016404239,-0.540972704,0.016686903,0.159717630,0.087494767,0.031693569,0.005954538,-0.006742134,0.012493892
-0.016408039,-0.538288925,0.061705070,0.163544013,0.081660535,0.031063308,0.005917762,-0.006753670,0.012482170
-0.016411840,-0.458070079,0.105016722,0.166699670,0.075676468,0.030425609,0.005880368,-0.006765134,0.012470440
-0.016415642,-0.339554645,0.145896260,0.169135615,0.069555431,0.029780667,0.005842362,-0.006776527,0.012458701
-0.016419444,-0.211981101,0.183618084,0.170802863,0.063310287,0.029128676,0.005803750,-0.006787848,0.012446955
-0.016423247,-0.029587927,0.217456596,0.171652431,0.056953898,0.028469831,0.005764538,-0.006799097,0.012435200
-0.016427051,0.238386399,0.246686195,0.171635333,0.050499129,0.027804325,0.005724730,-0.006810275,0.012423438
-0.016430856,0.502703397,0.270581281,0.170702585,0.043958842,0.027132353,0.005684334,-0.006821381,0.012411667
-0.016434662,0.689124589,0.288416257,0.168805203,0.037345901,0.026454109,0.005643354,-0.006832417,0.012399889
-0.016438468,0.763411495,0.299465521,0.165894200,0.030673170,0.025769788,0.005601796,-0.006843381,0.012388102
-0.016442276,0.711881282,0.266635076,0.147733345,0.023953512,0.025079584,0.005559666,-0.006854274,0.012376307
-0.016446084,0.446757912,0.228208654,0.128801883,0.017199790,0.024383690,0.005516969,-0.006865097,0.012364504
-0.016449893,0.045820991,0.186101589,0.109391810,0.010424868,0.023682302,0.005473711,-0.006875849,0.012352693
-0.016453702,-0.253149875,0.142229212,0.089795124,0.003641609,0.022975614,0.005429898,-0.006886531,0.012340875
-0.016457513,-0.362375078,0.098506858,0.070303820,-0.003137124,0.022263819,0.005385536,-0.006897143,0.012329048
-0.016461324,-0.299075012,0.056849859,0.051209895,-0.009898467,0.021547112,0.005340630,-0.006907684,0.012317213
-0.016465137,-0.179755733,0.023459212,0.032805347,-0.016629556,0.020825688,0.005295185,-0.006918156,0.012305371
-0.016468950,-0.096565948,-0.004821435,0.015382172,-0.023317529,0.020099741,0.005249208,-0.006928557,0.012293520
-0.016472763,-0.030940027,-0.026862774,-0.000767633,-0.029949522,0.019369464,0.005202704,-0.006938889,0.012281662
-0.016476578,0.010687661,-0.041535494,-0.015352071,-0.036512671,0.018635053,0.005155679,-0.006949151,0.012269795
-0.016480394,-0.000177005,-0.015763516,-0.027966166,-0.042994114,0.017896701,0.005108138,-0.006959344,0.012257921
-0.016484210,0.003196231,0.003534036,-0.038434111,-0.049380986,0.017154603,0.005060088,-0.006969468,0.012246039
-0.016488027,0.000140476,0.004815711,-0.034560626,-0.055660425,0.016408953,0.005011533,-0.006979523,0.012234149
-0.016491845,-0.006311435,0.002547744,-0.028857844,-0.061819567,0.015659946,0.004962479,-0.006989508,0.012222251
-0.016495663,0.005253031,0.000910178,-0.022294313,-0.067482638,0.014907775,0.004912933,-0.006999425,0.012210345
-0.016499483,-0.006012353,0.001644563,-0.015412602,-0.073002595,0.014152634,0.004862899,-0.007009273,0.012198432
-0.016503303,0.007828580,0.002090607,-0.008498742,-0.078369482,0.013394719,0.004812384,-0.007019052,0.012186511
-0.016507124,0.003672599,0.000865186,-0.002076530,-0.083573343,0.012634224,0.004761393,-0.007028764,0.012174582
-0.016510946,0.005275034,-0.000757525,0.003814374,-0.088604226,0.011871342,0.004709931,-0.007038406,0.012162645
-0.016514769,-0.007738285,-0.002438830,0.006325034,-0.090577920,0.011106268,0.004658005,-0.007047981,0.012150701
-0.016518592,-0.000700833,-0.003880729,0.008370131,-0.092373831,0.010339196,0.004605621,-0.007057488,0.012138749
-0.016522417,0.006216695,-0.004948002,0.009990090,-0.093997109,0.009570320,0.004552782,-0.007066927,0.012126789
-0.016526242,0.007845085,-0.005506907,0.011225336,-0.095452905,0.008799836,0.004499497,-0.007076298,0.012114821
-0.016530068,-0.005641741,-0.005766844,0.012116295,-0.096746369,0.008027936,0.004445769,-0.007085602,0.012102846
-0.016533895,0.006179342,-0.006186410,0.012703392,-0.097882652,0.007254816,0.004391605,-0.007094839,0.012090863
-0.016537722,-0.007408958,-0.006083790,0.013027053,-0.098866906,0.006480670,0.004337010,-0.007104008,0.012078873
-0.016541550,-0.001013395,-0.005887702,0.013127703,-0.099704279,0.005705691,0.004281991,-0.007113110,0.012066874
-0.016545379,0.010334172,-0.005601763,0.013045768,-0.100399925,0.004930074,0.004226552,-0.007122145,0.012054869
-0.016549209,0.011599490,-0.005227195,0.012821674,-0.100958992,0.004154014,0.004170699,-0.007131114,0.012042855
-0.016553040,-0.002255257,-0.004761657,0.012495845,-0.101386632,0.003377705,0.004114439,-0.007140015,0.012030834
-0.016556872,-0.001268775,-0.004201915,0.012108707,-0.101687995,0.002601340,0.004057776,-0.007148850,0.012018806
-0.016560704,-0.015479771,-0.003544739,0.011700686,-0.101868233,0.001825115,0.004000717,-0.007157619,0.012006770
-0.016564537,-0.000734075,-0.002254425,0.011586860,-0.101932495,0.001049223,0.003943267,-0.007166322,0.011994726
-0.016568371,0.008893998,-0.001001712,0.011517233,-0.101885933,0.000273859,0.003885431,-0.007174958,0.011982675
-0.016572206,0.008523007,0.000075134,0.011516463,-0.101733697,-0.000500783,0.003827216,-0.007183529,0.011970617
-0.016576041,0.013271513,0.000837845,0.011609208,-0.101480938,-0.001274508,0.003768627,-0.007192034,0.011958551
-0.016579877,-0.006517076,0.000188871,0.012336080,-0.100914326,-0.002047123,0.003709669,-0.007200473,0.011946477
-0.016583714,-0.011099963,-0.000849347,0.013153726,-0.100255944,-0.002818434,0.003650349,-0.007208847,0.011934396
-0.016587552,-0.000604227,-0.002118931,0.014034750,-0.099509398,-0.003588245,0.003590672,-0.007217155,0.011922308
-0.016591391,0.004714169,-0.003333115,0.014951754,-0.098678291,-0.004356362,0.003530644,-0.007225398,0.011910212
-0.016595230,0.009504538,-0.004147116,0.015914046,-0.098047575,-0.004841243,0.003470270,-0.007233576,0.011898108
-0.016599071,0.007469978,-0.003207674,0.016868671,-0.097339372,-0.005324175,0.003409556,-0.007241689,0.011885998
-0.016602912,-0.010471280,-0.001413367,0.017799381,-0.096557151,-0.005805098,0.003348508,-0.007249738,0.011873880
-0.016606753,-0.010521099,0.002457323,0.018689924,-0.095704384,-0.006283952,0.003287131,-0.007257721,0.011861754
-0.016610596,0.004298137,0.006446431,0.019524052,-0.094784540,-0.006760674,0.003225431,-0.007265640,0.011849621
-0.016614439,0.004790167,0.009769875,0.020285514,-0.093801090,-0.007235205,0.003163413,-0.007273495,0.011837481
-0.016618283,-0.002578672,0.010980969,0.020958062,-0.092757503,-0.007707483,0.003101085,-0.007281286,0.011825334
-0.016622128,-0.000597759,0.008323999,0.021090193,-0.091657250,-0.008177448,0.003038450,-0.007289013,0.011813179
-0.016625974,0.007106669,0.004987404,0.021123107,-0.090503801,-0.008645040,0.002975514,-0.007296675,0.011801017
-0.016629821,-0.010804957,0.002308210,0.021062755,-0.089300627,-0.009110196,0.002912284,-0.007304274,0.011788848
-0.016633668,-0.000101167,0.001052401,0.020915083,-0.088051197,-0.009572858,0.002848765,-0.007311810,0.011776672
-0.016637516,0.015341977,0.000093494,0.020686042,-0.086758982,-0.010032963,0.002784963,-0.007319282,0.011764488
-0.016641365,0.006914432,-0.001961012,0.020381579,-0.085427452,-0.010490451,0.002720883,-0.007326690,0.011752297
-0.016645214,0.008620541,-0.004118005,0.020007644,-0.084060076,-0.010945261,0.002656531,-0.007334035,0.011740099
-0.016649065,-0.004569257,-0.006350470,0.019570184,-0.082660327,-0.011397332,0.002591913,-0.007341318,0.011727893
-0.016652916,-0.012684521,-0.008631391,0.019075150,-0.081231672,-0.011846605,0.002527034,-0.007348537,0.011715681
-0.016656768,-0.011186019,-0.010502546,0.018528488,-0.079777584,-0.012293017,0.002461900,-0.007355694,0.011703461
-0.016660621,0.000240654,-0.012280884,0.017936149,-0.078301532,-0.012736508,0.002396517,-0.007362788,0.011691234
-0.016664474,0.001478698,-0.013852150,0.017304081,-0.076806985,-0.013177018,0.002330890,-0.007369820,0.011679000
-0.016668328,0.007411309,-0.015102085,0.016638233,-0.075297415,-0.013614485,0.002265024,-0.007376789,0.011666759
-0.016672183,-0.008157372,-0.014857228,0.015964404,-0.073776292,-0.014048849,0.002198927,-0.007383696,0.011654511
-0.016676039,-0.008997307,-0.014322985,0.015261370,-0.072247085,-0.014480049,0.002132603,-0.007390541,0.011642256
-0.016679896,-0.004989006,-0.013614070,0.014527758,-0.070713266,-0.014908025,0.002066058,-0.007397324,0.011629994
-0.016683753,-0.001020853,-0.012837323,0.013762193,-0.069178303,-0.015332715,0.001999297,-0.007404046,0.011617724
-0.016687611,0.013018772,-0.012099584,0.012963302,-0.067645668,-0.015754058,0.001932327,-0.007410706,0.011605448
-0.016691470,0.012490340,-0.011756547,0.012129712,-0.066118831,-0.016171994,0.001865153,-0.007417304,0.011593164
-0.016695330,0.001999737,-0.011409322,0.011260048,-0.064601262,-0.016586463,0.001797780,-0.007423841,0.011580874
-0.016699190,-0.013598295,-0.010907872,0.010352939,-0.063096430,-0.016997403,0.001730215,-0.007430317,0.011568577
-0.016703052,-0.000268353,-0.009282825,0.009407009,-0.061607807,-0.017404753,0.001662462,-0.007436732,0.011556272
-0.016706914,0.002747621,-0.007287458,0.008053165,-0.059771142,-0.017808454,0.001594528,-0.007443086,0.011543961
-0.016710776,0.010388348,-0.004855717,0.006654269,-0.057954141,-0.018208443,0.001526419,-0.007449380,0.011531643
-0.016714640,0.002237305,-0.001566302,0.005205463,-0.056156789,-0.018604660,0.001458139,-0.007455612,0.011519318
-0.016718504,-0.001042998,0.001923057,0.003701889,-0.054379072,-0.018997045,0.001389695,-0.007461785,0.011506985
-0.016722369,-0.009145298,0.005309872,0.002138689,-0.052620976,-0.019385537,0.001321093,-0.007467897,0.011494647
-0.016726235,0.008510678,0.008018648,0.000511003,-0.050882486,-0.019770075,0.001252337,-0.007473949,0.011482301
-0.016730102,-0.006485199,0.008974449,-0.001696182,-0.049163588,-0.020150598,0.001183434,-0.007479941,0.011469948
-0.016733969,0.006335559,0.007187920,-0.003962081,-0.047464266,-0.020527045,0.001114389,-0.007485873,0.011457588
-0.016737837,0.010291508,0.004329795,-0.006276066,-0.045784508,-0.020899356,0.001045208,-0.007491745,0.011445222
-0.016741706,0.004526275,0.001245739,-0.008627508,-0.044124297,-0.021267469,0.000975896,-0.007497558,0.011432849
-0.016745576,-0.006500329,-0.001534768,-0.011005778,-0.042483620,-0.021631325,0.000906460,-0.007503311,0.011420469
-0.016749446,0.006162695,-0.002973436,-0.013400248,-0.040862463,-0.021990862,0.000836905,-0.007509005,0.011408082
-0.016753317,0.007180841,-0.002746468,-0.015800289,-0.039260810,-0.022346019,0.000767237,-0.007514640,0.011395688
-0.016757189,0.002572824,-0.001883288,-0.018195273,-0.037678647,-0.022696736,0.000697460,-0.007520216,0.011383288
-0.016761062,-0.002375050,-0.000680911,-0.020574571,-0.036115960,-0.023042953,0.000627582,-0.007525733,0.011370881
-0.016764935,-0.007376476,0.001232172,-0.023596079,-0.034572735,-0.023384607,0.000557607,-0.007531192,0.011358467
-0.016768809,-0.007145147,0.001603851,-0.025294073,-0.033048956,-0.023721639,0.000487541,-0.007536592,0.011346047
-0.016772684,-0.011394758,0.001377017,-0.026897833,-0.031544610,-0.024053987,0.000417391,-0.007541933,0.011333620
-0.016776560,0.000384098,0.000018976,-0.028384149,-0.030059682,-0.024381591,0.000347160,-0.007547216,0.011321186
-0.016780437,0.002986087,-0.002288230,-0.029729811,-0.028594157,-0.024704390,0.000276857,-0.007552441,0.011308745
-0.016784314,0.011428976,-0.005585658,-0.030911612,-0.027148021,-0.025022324,0.000206484,-0.007557608,0.011296298
-0.016788192,-0.007216159,-0.011967674,-0.032042590,-0.025585009,-0.025335331,0.000136050,-0.007562718,0.011283844
-0.016792070,0.002604086,-0.017010973,-0.032963147,-0.024041497,-0.025643350,0.000065559,-0.007567769,0.011271384
-0.016795950,-0.002942104,-0.018247389,-0.032309576,-0.022517607,-0.025946322,-0.000004984,-0.007572763,0.011258917
-0.016799830,0.009477637,-0.017656815,-0.031434291,-0.021013465,-0.026244185,-0.000075571,-0.007577700,0.011246444
-0.016803711,0.006082826,-0.016446653,-0.030349350,-0.019529196,-0.026536878,-0.000146199,-0.007582579,0.011233963
-0.016807593,0.001524980,-0.014256308,-0.029066807,-0.018064923,-0.026824341,-0.000216860,-0.007587402,0.011221477
-0.016811475,-0.003250459,-0.012019106,-0.027598720,-0.016620770,-0.027106513,-0.000287551,-0.007592167,0.011208984
-0.016815358,-0.013320721,-0.009645705,-0.025957142,-0.015196863,-0.027383333,-0.000358264,-0.007596876,0.011196484
-0.016819242,-0.020284534,-0.005525260,-0.024154132,-0.013793326,-0.027654740,-0.000428994,-0.007601527,0.011183978
-0.016823127,-0.017553892,-0.001233667,-0.022201743,-0.012410283,-0.027920674,-0.000499735,-0.007606123,0.011171465
-0.016827013,-0.005062282,0.003174679,-0.020112033,-0.011047858,-0.028181073,-0.000570482,-0.007610662,0.011158946
-0.016830899,-0.012743197,0.007645381,-0.017897056,-0.009706176,-0.028435878,-0.000641230,-0.007615144,0.011146420
-0.016834786,-0.015530124,0.012124043,-0.015568870,-0.008385361,-0.028685027,-0.000711972,-0.007619571,0.011133888
-0.016838673,-0.008356553,0.016556269,-0.013139529,-0.007085538,-0.028928459,-0.000782702,-0.007623942,0.011121350
-0.016842562,-0.001155976,0.020887661,-0.010621089,-0.005806831,-0.029166113,-0.000853416,-0.007628256,0.011108805
-0.016846451,0.011138120,0.025063825,-0.008025607,-0.004549364,-0.029397930,-0.000924107,-0.007632516,0.011096253
-0.016850341,0.008592244,0.029030363,-0.005365139,-0.003313263,-0.029623848,-0.000994771,-0.007636719,0.011083696
-0.016854231,0.006272905,0.032732879,-0.002651739,-0.002098650,-0.029843806,-0.001065400,-0.007640868,0.011071132
-0.016858123,-0.005264176,0.035627769,0.000102535,-0.000905651,-0.030057744,-0.001135990,-0.007644961,0.011058561
-0.016862015,-0.010196833,0.036904980,0.002885629,0.000265609,-0.030265600,-0.001206534,-0.007648999,0.011045984
-0.016865908,-0.004709491,0.037761049,0.005685486,0.001415008,-0.030467314,-0.001277028,-0.007652982,0.011033401
-0.016869801,-0.003792341,0.038198284,0.008490051,0.002542419,-0.030662826,-0.001347465,-0.007656910,0.011020812
-0.016873696,0.007564421,0.038218991,0.011287267,0.003647719,-0.030852074,-0.001417840,-0.007660783,0.011008217
-0.016877591,0.005395149,0.036800933,0.014065080,0.004730784,-0.031034998,-0.001488147,-0.007664603,0.010995615
-0.016881487,-0.006417631,0.035073698,0.016811432,0.005791488,-0.031211536,-0.001558381,-0.007668367,0.010983007
-0.016885383,-0.002127102,0.032302582,0.019514268,0.006829708,-0.031381629,-0.001628535,-0.007672078,0.010970392
-0.016889281,0.002372530,0.029393904,0.022161532,0.007845319,-0.031545215,-0.001698605,-0.007675734,0.010957772
-0.016893179,0.007026806,0.026414239,0.024741169,0.008838197,-0.031702234,-0.001768584,-0.007679337,0.010945145
-0.016897077,0.006781265,0.023430161,0.027241122,0.009808217,-0.031852624,-0.001838467,-0.007682886,0.010932512
-0.016900977,0.006800067,0.021022930,0.028916029,0.010755256,-0.031996326,-0.001908248,-0.007686381,0.010919873
-0.016904877,-0.003128149,0.018674794,0.030495061,0.011679187,-0.032133277,-0.001977922,-0.007689822,0.010907227
-0.016908778,-0.002996125,0.016382688,0.031974084,0.012579888,-0.032263418,-0.002047483,-0.007693211,0.010894576
-0.016912680,-0.002796601,0.014143547,0.033348963,0.013457234,-0.032386688,-0.002116924,-0.007696546,0.010881918
-0.016916582,-0.007522320,0.011954304,0.034615561,0.014311100,-0.032503026,-0.002186242,-0.007699828,0.010869255
-0.016920485,0.008336224,0.009309649,0.035769745,0.015141362,-0.032612371,-0.002255429,-0.007703057,0.010856585
-0.016924389,0.004506335,0.006486470,0.036807378,0.015947895,-0.032714662,-0.002324480,-0.007706233,0.010843909
-0.016928294,-0.004197146,0.003674119,0.037724326,0.016730576,-0.032809839,-0.002393390,-0.007709357,0.010831227
-0.016932199,-0.007750556,0.000853127,0.038516454,0.017489279,-0.032897841,-0.002462153,-0.007712428,0.010818539
-0.016936105,-0.011130235,-0.001995974,0.039179626,0.018223881,-0.032978606,-0.002530763,-0.007715447,0.010805845
-0.016940012,0.005144545,-0.004349717,0.039709707,0.018934257,-0.033052075,-0.002599214,-0.007718414,0.010793145
-0.016943919,0.011382763,-0.006512889,0.040102563,0.019620282,-0.033118187,-0.002667501,-0.007721329,0.010780439
-0.016947827,0.012097958,-0.007994835,0.040354058,0.020281833,-0.033176880,-0.002735619,-0.007724192,0.010767727
-0.016951736,-0.002956360,-0.007407182,0.039925723,0.019918893,-0.032873155,-0.002761966,-0.007727003,0.010755009
-0.016955646,-0.009279185,-0.005399666,0.039362226,0.019532206,-0.032562100,-0.002788137,-0.007729762,0.010742285
-0.016959556,0.006049797,0.000096363,0.038673900,0.019122623,-0.032243860,-0.002814128,-0.007732470,0.010729555
-0.016963467,-0.005134733,0.007235184,0.037871079,0.018690994,-0.031918586,-0.002839940,-0.007735127,0.010716819
-0.016967379,0.008640268,0.009532714,0.036964096,0.018238171,-0.031586424,-0.002865569,-0.007737732,0.010704077
-0.016971292,-0.002598494,0.007456799,0.035457699,0.017765006,-0.031247522,-0.002891016,-0.007740287,0.010691330
-0.016975205,-0.012115703,0.003753972,0.033869329,0.017272349,-0.030902029,-0.002916277,-0.007742790,0.010678576
-0.016979119,-0.010941512,-0.000558174,0.032210842,0.016761053,-0.030550091,-0.002941351,-0.007745243,0.010665817
-0.016983034,0.004762525,-0.004330643,0.030494093,0.016231969,-0.030191858,-0.002966237,-0.007747645,0.010653052
-0.016986949,0.009809247,-0.007388835,0.028730939,0.015685947,-0.029827476,-0.002990934,-0.007749997,0.010640281
-0.016990865,0.013085719,-0.008632377,0.026933233,0.015123839,-0.029457094,-0.003015439,-0.007752299,0.010627504
-0.016994782,0.010658648,-0.009140535,0.025112833,0.014546497,-0.029080859,-0.003039751,-0.007754550,0.010614721
-0.016998700,-0.012199633,-0.009198203,0.023281592,0.013954772,-0.028698920,-0.003063868,-0.007756751,0.010601933
-0.017002618,-0.010882080,-0.008424985,0.021451367,0.013349516,-0.028311425,-0.003087789,-0.007758903,0.010589139
-0.017006537,0.000414326,-0.007636460,0.019634013,0.012731579,-0.027918520,-0.003111512,-0.007761004,0.010576339
-0.017010457,0.006827313,-0.006982919,0.017841386,0.012101812,-0.027520355,-0.003135036,-0.007763056,0.010563533
-0.017014377,0.013494612,-0.006614649,0.016085340,0.011461069,-0.027117076,-0.003158359,-0.007765059,0.010550721
-0.017018298,0.011385742,-0.007513732,0.014377732,0.010810199,-0.026708833,-0.003181479,-0.007767012,0.010537904
-0.017022220,0.009440247,-0.008632273,0.012730417,0.010150054,-0.026295772,-0.003204395,-0.007768917,0.010525081
-0.017026142,-0.007570537,-0.009754166,0.011155249,0.009481485,-0.025878041,-0.003227105,-0.007770772,0.010512253
-0.017030066,0.004806533,-0.010345118,0.009664085,0.008805344,-0.025455789,-0.003249608,-0.007772578,0.010499419
-0.017033990,0.005969265,-0.009815493,0.008268781,0.008122482,-0.025029164,-0.003271902,-0.007774336,0.010486579
-0.017037914,0.001920550,-0.009180745,0.006981190,0.007433750,-0.024598313,-0.003293985,-0.007776045,0.010473734
-0.017041840,-0.002262153,-0.008530893,0.005813170,0.006740001,-0.024163383,-0.003315856,-0.007777706,0.010460883
-0.017045766,0.003929569,-0.008386911,0.004776575,0.006042084,-0.023724524,-0.003337513,-0.007779318,0.010448026
-0.017049692,-0.007154135,-0.006554680,0.004326433,0.005340852,-0.023281883,-0.003358955,-0.007780882,0.010435164
-0.017053620,-0.000720784,-0.002349600,0.003984960,0.004637155,-0.022835607,-0.003380180,-0.007782399,0.010422296
-0.017057548,0.000548680,0.001943176,0.003717543,0.003931846,-0.022385845,-0.003401186,-0.007783867,0.010409423
-0.017061477,0.008012981,0.004998834,0.003489569,0.003225775,-0.021932744,-0.003421972,-0.007785288,0.010396544
-0.017065407,-0.005102084,0.003348556,0.003543353,0.002519795,-0.021476453,-0.003442536,-0.007786661,0.010383659
-0.017069337,0.005165432,-0.001626676,0.003535260,0.001814755,-0.021017119,-0.003462877,-0.007787987,0.010370770
-0.017073268,-0.006983275,-0.004062054,0.003398584,0.001111508,-0.020554890,-0.003482993,-0.007789265,0.010357874
-0.017077200,-0.008689918,-0.001335585,0.002652339,0.000410905,-0.020089914,-0.003502882,-0.007790496,0.010344973
-0.017081132,0.003698451,0.002464777,0.001730824,-0.000286203,-0.019622338,-0.003522543,-0.007791681,0.010332067
-0.017085065,-0.002668471,0.005168610,0.000654062,-0.000978965,-0.019152312,-0.003541974,-0.007792818,0.010319155
-0.017088999,0.006409378,0.002791706,-0.000794507,-0.001666528,-0.018679982,-0.003561174,-0.007793909,0.010306238
-0.017092933,-0.007627272,-0.001438639,-0.002283616,-0.002348042,-0.018205497,-0.003580141,-0.007794953,0.010293316
-0.017096868,-0.012476128,-0.004920108,-0.003718577,-0.003022656,-0.017729004,-0.003598873,-0.007795951,0.010280388
-0.017100804,-0.002988550,-0.003233170,-0.004668266,-0.003689517,-0.017250651,-0.003617369,-0.007796903,0.010267454
-0.017104741,0.005065140,-0.000288698,-0.005452196,-0.004347776,-0.016770586,-0.003635628,-0.007797808,0.010254516
-0.017108678,-0.002373305,0.002953928,-0.006053443,-0.004996579,-0.016288958,-0.003653647,-0.007798668,0.010241572
-0.017112616,0.004192811,0.001347919,-0.005697133,-0.005760562,-0.015805913,-0.003671425,-0.007799482,0.010228622
-0.017116555,0.001404255,-0.001064568,-0.005192398,-0.006513370,-0.015321600,-0.003688960,-0.007800250,0.010215668
-0.017120494,-0.011354547,-0.003617497,-0.004590420,-0.007254137,-0.014836166,-0.003706252,-0.007800972,0.010202708
-0.017124434,-0.001608271,-0.003752425,-0.003925688,-0.007981994,-0.014349761,-0.003723297,-0.007801650,0.010189742
-0.017128375,0.002276032,-0.003069074,-0.003232153,-0.008696074,-0.013862530,-0.003740095,-0.007802281,0.010176772
-0.017132316,0.015470719,-0.001723264,-0.002527070,-0.009395508,-0.013374623,-0.003756645,-0.007802868,0.010163796
-0.017136258,0.013148146,0.000129184,-0.001827696,-0.010079429,-0.012886186,-0.003772944,-0.007803410,0.010150815
-0.017140201,0.010496050,0.002317067,-0.001151287,-0.010746968,-0.012397369,-0.003788990,-0.007803907,0.010137829
-0.017144144,-0.012236303,0.004607653,-0.000515100,-0.011397259,-0.011908319,-0.003804783,-0.007804360,0.010124837
-0.017148089,-0.009586924,0.006555488,0.000063611,-0.012029433,-0.011419183,-0.003820321,-0.007804767,0.010111841
-0.017152033,0.008445559,0.008175735,0.000567588,-0.012642622,-0.010930110,-0.003835601,-0.007805131,0.010098839
-0.017155979,0.007059859,0.009286214,0.000979576,-0.013235959,-0.010441248,-0.003850623,-0.007805450,0.010085832
-0.017159925,0.011454690,0.009704747,0.001282319,-0.013808575,-0.009952744,-0.003865385,-0.007805725,0.010072820
-0.017163872,-0.002047317,0.008466334,0.000330042,-0.013421158,-0.009615768,-0.003879885,-0.007805957,0.010059802
-0.017167820,-0.009627873,0.006381664,-0.000718306,-0.013012612,-0.009279345,-0.003894122,-0.007806144,0.010046780
-0.017171768,-0.000401649,0.002535480,-0.001832293,-0.012583395,-0.008943524,-0.003908094,-0.007806288,0.010033752
-0.017175717,0.009039180,-0.001509967,-0.002981489,-0.012133966,-0.008608352,-0.003921799,-0.007806388,0.010020720
-0.017179667,0.013045566,-0.005135556,-0.004135463,-0.011664782,-0.008273876,-0.003935237,-0.007806445,0.010007682
-0.017183617,0.015270171,-0.007023876,-0.005263783,-0.011176304,-0.007940145,-0.003948404,-0.007806459,0.009994640
-0.017187568,-0.003927489,-0.007564368,-0.006336020,-0.010668990,-0.007607206,-0.003961301,-0.007806429,0.009981592
-0.017191519,-0.014886184,-0.006875585,-0.006728736,-0.010308906,-0.007275106,-0.003973924,-0.007806357,0.009968539
-0.017195472,0.008585111,-0.000750763,-0.007005052,-0.009930676,-0.006943893,-0.003986273,-0.007806242,0.009955482
-0.017199425,-0.002502819,0.004769703,-0.007135082,-0.009534530,-0.006613614,-0.003998345,-0.007806084,0.009942419
-0.017203379,0.002350367,0.004155865,-0.007088941,-0.009120699,-0.006284318,-0.004010140,-0.007805884,0.009929351
-0.017207333,-0.001751990,0.001145595,-0.005707564,-0.008689415,-0.005956052,-0.004021656,-0.007805642,0.009916278
-0.017211288,-0.000458873,-0.002477606,-0.004125193,-0.008240908,-0.005628863,-0.004032891,-0.007805357,0.009903201
-0.017215244,-0.009896713,-0.005581969,-0.002346890,-0.007775409,-0.005302799,-0.004043843,-0.007805030,0.009890118
-0.017219200,-0.002777178,-0.005746171,-0.000082031,-0.007293149,-0.004977908,-0.004054511,-0.007804661,0.009877031
-0.017223157,0.008097105,-0.004853031,0.002355106,-0.006794359,-0.004654236,-0.004064894,-0.007804251,0.009863939
-0.017227115,-0.007577468,-0.002580072,0.004945926,-0.006279270,-0.004331833,-0.004074989,-0.007803799,0.009850842
-0.017231073,-0.003466258,-0.000243063,0.007671836,-0.005748113,-0.004010745,-0.004084795,-0.007803305,0.009837739
-0.017235032,-0.009293736,0.001901336,0.010514243,-0.005201119,-0.003691020,-0.004094311,-0.007802770,0.009824633
-0.017238992,-0.015054587,0.003866680,0.013454555,-0.004638520,-0.003372705,-0.004103535,-0.007802194,0.009811521
-0.017242953,-0.015743495,0.005666524,0.016474177,-0.004060545,-0.003055849,-0.004112465,-0.007801577,0.009798404
-0.017246914,0.008644854,0.007314425,0.019554517,-0.003467426,-0.002740498,-0.004121100,-0.007800919,0.009785283
-0.017250875,0.008115774,0.008823937,0.022676983,-0.002859394,-0.002426701,-0.004129438,-0.007800220,0.009772157
-0.017254838,0.002833421,0.010049776,0.025822980,-0.002236681,-0.002114505,-0.004137477,-0.007799480,0.009759026
-0.017258801,-0.007474125,0.011282731,0.028973915,-0.001599516,-0.001803957,-0.004145217,-0.007798701,0.009745890
-0.017262765,-0.007986183,0.012720994,0.032111196,-0.000948130,-0.001495105,-0.004152654,-0.007797880,0.009732750
-0.017266729,0.001415450,0.014265229,0.035216230,-0.000282756,-0.001187997,-0.004159789,-0.007797020,0.009719605
-0.017270694,0.000782737,0.015882343,0.038270423,0.000396376,-0.000882680,-0.004166618,-0.007796119,0.009706455
-0.017274660,0.005167642,0.017539245,0.041255182,0.001089036,-0.000579203,-0.004173141,-0.007795179,0.009693301
-0.017278626,-0.005342965,0.019167933,0.044151914,0.001794992,-0.000277611,-0.004179356,-0.007794199,0.009680141
-0.017282593,-0.009050924,0.019089118,0.046942026,0.002514013,0.000022046,-0.004185262,-0.007793179,0.009666978
-0.017286561,-0.007336582,0.018702017,0.049606925,0.003245869,0.000319721,-0.004190856,-0.007792120,0.009653809
-0.017290530,-0.000108638,0.017934200,0.052128018,0.003990327,0.000615368,-0.004196137,-0.007791022,0.009640636
-0.017294499,0.007724207,0.016713236,0.054486712,0.004747158,0.000908937,-0.004201104,-0.007789884,0.009627458
-0.017298468,0.016253255,0.014966696,0.056664413,0.005516131,0.001200382,-0.004205754,-0.007788708,0.009614276
-0.017302439,0.002770678,0.011666095,0.057397710,0.006297014,0.001489654,-0.004210088,-0.007787492,0.009601089
-0.017306410,-0.000127857,0.007999685,0.057902962,0.007089576,0.001776708,-0.004214101,-0.007786238,0.009587898
-0.017310381,-0.007645810,0.004199661,0.058151711,0.007893586,0.002061493,-0.004217794,-0.007784945,0.009574702
-0.017314354,-0.009986642,0.000498221,0.058115496,0.008708814,0.002343964,-0.004221165,-0.007783614,0.009561501
-0.017318327,0.007657572,-0.002883824,0.057765859,0.009535029,0.002624073,-0.004224211,-0.007782244,0.009548296
-0.017322300,0.004741957,-0.005372863,0.057074341,0.010371999,0.002901772,-0.004226932,-0.007780836,0.009535086
-0.017326275,0.001389656,-0.007063302,0.056012481,0.011219494,0.003177012,-0.004229326,-0.007779391,0.009521872
-0.017330250,-0.002674528,-0.007651208,0.054552282,0.012076822,0.003449748,-0.004231391,-0.007777907,0.009508654
-0.017334225,0.002339183,-0.006897624,0.052665576,0.012943461,0.003719931,-0.004233125,-0.007776386,0.009495431
-0.017338202,-0.005757424,-0.000533803,0.048272861,0.013818428,0.003987513,-0.004234528,-0.007774827,0.009482203
-0.017342179,-0.001686562,0.004117407,0.043420223,0.014700740,0.004252448,-0.004235596,-0.007773231,0.009468972
-0.017346156,0.007877091,0.008737426,0.038101954,0.015589413,0.004514686,-0.004236330,-0.007771597,0.009455735
-0.017350134,0.018361460,0.013977725,0.031239683,0.016483465,0.004774182,-0.004236727,-0.007769926,0.009442495
-0.017354113,0.035194473,0.018272354,0.023972463,0.017381912,0.005030887,-0.004236785,-0.007768219,0.009429250
-0.017358093,0.023675420,0.016256661,0.016366685,0.018283773,0.005284753,-0.004236503,-0.007766474,0.009416000
-0.017362073,0.013589036,0.013080549,0.008488740,0.019188063,0.005535734,-0.004235880,-0.007764693,0.009402746
-0.017366054,-0.005408578,0.009022556,0.000405017,0.020093800,0.005783780,-0.004234913,-0.007762875,0.009389488
-0.017370035,0.006338676,0.004361221,-0.007818091,0.021000001,0.006028846,-0.004233602,-0.007761021,0.009376226
-0.017374017,-0.016513102,-0.000624914,-0.016114196,0.021905684,0.006270883,-0.004231944,-0.007759130,0.009362959
-0.017378000,-0.019307814,-0.005657313,-0.024416905,0.022809864,0.006509843,-0.004229938,-0.007757203,0.009349688
-0.017381983,-0.027389360,-0.010457434,-0.032659828,0.023711559,0.006745680,-0.004227583,-0.007755241,0.009336413
-0.017385967,-0.021101642,-0.014746739,-0.040776575,0.024609786,0.006978345,-0.004224876,-0.007753242,0.009323134
-0.017389952,-0.007518073,-0.016517175,-0.048700755,0.025503562,0.007207791,-0.004221817,-0.007751208,0.009309850
-0.017393938,0.009994880,-0.017467637,-0.056365978,0.026391905,0.007433970,-0.004218403,-0.007749139,0.009296562
-0.017397923,0.008766128,-0.014992398,-0.063705852,0.027273830,0.007656834,-0.004214633,-0.007747033,0.009283270
-0.017401910,0.001574157,-0.011935306,-0.070653987,0.028148356,0.007876337,-0.004210506,-0.007744893,0.009269973
-0.017405897,-0.001377654,-0.008565099,-0.077143993,0.029014500,0.008092430,-0.004206019,-0.007742718,0.009256673
-0.017409885,-0.004885928,-0.005150519,-0.083109478,0.029871277,0.008305067,-0.004201172,-0.007740507,0.009243368
-0.017413874,0.006292887,-0.002000477,-0.088484053,0.030717706,0.008514198,-0.004195962,-0.007738262,0.009230059
-0.017417863,0.007063031,0.000915424,-0.093201326,0.031552803,0.008719777,-0.004190389,-0.007735982,0.009216746
-0.017421853,0.006309886,0.003977790,-0.096526255,0.032375586,0.008921756,-0.004184449,-0.007733667,0.009203429
-0.017425843,-0.004567315,0.006411862,-0.099082287,0.033185071,0.009120088,-0.004178143,-0.007731318,0.009190108
-0.017429834,-0.015228370,0.007833261,-0.100824215,0.033980275,0.009314725,-0.004171468,-0.007728935,0.009176783
-0.017433826,-0.010360746,0.007885280,-0.101789663,0.034843046,0.009505619,-0.004164422,-0.007726518,0.009163453
-0.017437818,0.015737419,-0.000159559,-0.095869137,0.035689547,0.009692722,-0.004157005,-0.007724067,0.009150120
-0.017441811,0.019537351,-0.011707413,-0.089126652,0.036518772,0.009875988,-0.004149214,-0.007721582,0.009136783
-0.017445805,0.009484099,-0.025119700,-0.081644787,0.037329716,0.010055368,-0.004141047,-0.007719063,0.009123441
-0.017449799,0.009819743,-0.039554868,-0.073506121,0.038121371,0.010230816,-0.004132504,-0.007716511,0.009110096
-0.017453794,-0.005213639,-0.054171363,-0.064793235,0.038892733,0.010402282,-0.004123583,-0.007713925,0.009096746
-0.017457790,0.012574762,-0.072076365,-0.055588705,0.039642794,0.010569720,-0.004114282,-0.007711307,0.009083393
-0.017461786,0.023132226,-0.088133520,-0.045975113,0.040370549,0.010733083,-0.004104599,-0.007708655,0.009070036
-0.017465782,0.035354762,-0.101155206,-0.036035037,0.041074992,0.010892322,-0.004094533,-0.007705970,0.009056674
-0.017469780,0.002989276,-0.095493373,-0.025162383,0.041755116,0.011047390,-0.004084082,-0.007703252,0.009043309
-0.017473778,-0.038313734,-0.086034636,-0.014119978,0.042409916,0.011198239,-0.004073245,-0.007700502,0.009029940
-0.017477776,-0.098052878,-0.073205185,-0.002981974,0.043038385,0.011344822,-0.004062020,-0.007697719,0.009016567
-0.017481776,-0.140726762,-0.057431205,0.008177475,0.043639517,0.011487091,-0.004050405,-0.007694904,0.009003190
-0.017485776,-0.200833993,-0.039138885,0.019284217,0.044212306,0.011624999,-0.004038399,-0.007692057,0.008989809
-0.017489776,-0.237873179,-0.018754412,0.030264098,0.044755746,0.011758498,-0.004026001,-0.007689177,0.008976425
-0.017493777,-0.286342928,0.003296028,0.041042965,0.045268831,0.011887540,-0.004013208,-0.007686266,0.008963036
-0.017497779,-0.335741846,0.026586246,0.051546666,0.045750555,0.012012078,-0.004000019,-0.007683323,0.008949644
-0.017501782,-0.430568541,0.050690056,0.061701046,0.046199911,0.012132065,-0.003986433,-0.007680348,0.008936248
-0.017505785,-0.510321621,0.075181270,0.071431953,0.046615894,0.012247451,-0.003972447,-0.007677342,0.008922848
-0.017509788,-0.535733955,0.105867964,0.080665234,0.046997497,0.012358191,-0.003954068,-0.007678297,0.008909445
-0.017513792,-0.519907593,0.135927392,0.089326735,0.047343714,0.012464237,-0.003935286,-0.007679222,0.008896037
-0.017517797,-0.477178845,0.164771071,0.097342304,0.047653539,0.012565540,-0.003916100,-0.007680115,0.008882626
-0.017521803,-0.401884024,0.191810517,0.104637788,0.047925967,0.012662053,-0.003896510,-0.007680976,0.008869211
-0.017525809,-0.318359440,0.216457247,0.111139032,0.048159990,0.012753729,-0.003876513,-0.007681807,0.008855793
-0.017529816,-0.190941406,0.238122778,0.116771885,0.048354603,0.012840520,-0.003856108,-0.007682606,0.008842371
-0.017533823,-0.008966232,0.256218628,0.121462194,0.048508800,0.012922378,-0.003835294,-0.007683373,0.008828945
-0.017537831,0.253229770,0.270156312,0.125135804,0.048621574,0.012999257,-0.003814069,-0.007684109,0.008815515
-0.017541840,0.506310288,0.279347348,0.127718563,0.048691920,0.013071107,-0.003792431,-0.007684814,0.008802082
-0.017545849,0.675939010,0.283203252,0.129136317,0.048718831,0.013137882,-0.003770380,-0.007685487,0.008788645
-0.017549859,0.727779626,0.293494951,0.118445943,0.047410038,0.012955905,-0.003703458,-0.007686129,0.008775205
-0.017553869,0.696643068,0.247898148,0.106668501,0.046058562,0.012768916,-0.003636125,-0.007686739,0.008761761
-0.017557880,0.466310196,0.197478030,0.093956079,0.044666162,0.012577027,-0.003568387,-0.007687318,0.008748313
-0.017561892,0.124709115,0.144152539,0.080460767,0.043234596,0.012380351,-0.003500250,-0.007687866,0.008734862
-0.017565904,-0.175232072,0.089839617,0.066334654,0.041765622,0.012178998,-0.003431718,-0.007688382,0.008721407
-0.017569917,-0.300585259,0.036457205,0.051729829,0.040260997,0.011973081,-0.003362796,-0.007688866,0.008707949
-0.017573930,-0.253422343,-0.014076755,0.036798380,0.038722481,0.011762711,-0.003293490,-0.007689319,0.008694487
-0.017577944,-0.148523649,-0.057135892,0.021692398,0.037151831,0.011548001,-0.003223804,-0.007689741,0.008681022
-0.017581959,-0.030032628,-0.093730705,0.006563970,0.035550806,0.011329061,-0.003153744,-0.007690131,0.008667553
-0.017585974,0.035198835,-0.122163268,-0.008434813,0.033921164,0.011106003,-0.003083315,-0.007690489,0.008654081
-0.017589990,0.036137157,-0.106553948,-0.023151864,0.032264662,0.010878939,-0.003012523,-0.007690816,0.008640605
-0.017594007,0.019855277,-0.084528316,-0.037036415,0.030583060,0.010647981,-0.002941371,-0.007691112,0.008627126
-0.017598024,-0.000755570,-0.058721118,-0.050346823,0.028878114,0.010413241,-0.002869865,-0.007691376,0.008613643
-0.017602042,-0.003304095,-0.036665831,-0.062942762,0.027151584,0.010174829,-0.002798011,-0.007691608,0.008600157
-0.017606060,0.010101196,-0.016396134,-0.074683912,0.025405228,0.009932859,-0.002725813,-0.007691809,0.008586668
-0.017610079,0.001757733,-0.000351646,-0.085429950,0.023640803,0.009687441,-0.002653277,-0.007691978,0.008573175
-0.017614099,-0.003984934,0.011975897,-0.095040552,0.021860069,0.009438687,-0.002580408,-0.007692116,0.008559679
-0.017618119,-0.012871371,0.013834297,-0.096020823,0.020064782,0.009186709,-0.002507210,-0.007692222,0.008546179
-0.017622139,-0.015646143,0.013488454,-0.095892960,0.018256702,0.008931619,-0.002433690,-0.007692297,0.008532677
-0.017626161,-0.007801336,0.011596210,-0.094824585,0.016437586,0.008673528,-0.002359851,-0.007692340,0.008519170
-0.017630183,-0.000069122,0.009055498,-0.092983321,0.014609192,0.008412549,-0.002285700,-0.007692351,0.008505661
-0.017634205,0.012070804,0.006511769,-0.090741989,0.012978476,0.008148791,-0.002211241,-0.007692331,0.008492148
-0.017638228,0.008347235,0.004401989,-0.088062509,0.011341493,0.007882369,-0.002136479,-0.007692279,0.008478632
-0.017642252,-0.006105655,0.002757743,-0.085111996,0.009699494,0.007613392,-0.002061420,-0.007692196,0.008465113
-0.017646276,-0.010945208,0.001402130,-0.082057568,0.008053731,0.007341974,-0.001986069,-0.007692081,0.008451591
-0.017650301,-0.006336754,0.001223814,-0.079623917,0.006405456,0.007068225,-0.001910430,-0.007691934,0.008438065
-0.017654327,0.008647414,0.000848388,-0.077365702,0.004755921,0.006792257,-0.001834510,-0.007691756,0.008424536
-0.017658353,-0.000158753,-0.001049178,-0.074793200,0.003106378,0.006514182,-0.001758312,-0.007691546,0.008411004
-0.017662380,-0.003764374,-0.002935833,-0.072431703,0.001458078,0.006234111,-0.001681843,-0.007691304,0.008397469
-0.017666407,0.002502679,-0.004561729,-0.070204545,-0.000187726,0.005952157,-0.001605106,-0.007691031,0.008383930
-0.017670435,0.000632836,-0.003378800,-0.067651581,-0.001829784,0.005668431,-0.001528108,-0.007690726,0.008370389
-0.017674463,-0.007115492,-0.001284947,-0.065134679,-0.003466842,0.005383045,-0.001450854,-0.007690390,0.008356844
-0.017678493,0.009273422,0.001681132,-0.062632226,-0.005097650,0.005096110,-0.001373348,-0.007690021,0.008343296
-0.017682522,0.010843601,0.004452443,-0.060122611,-0.006720955,0.004807738,-0.001295596,-0.007689621,0.008329745
-0.017686552,0.004802067,0.004798994,-0.057584221,-0.008335505,0.004518041,-0.001217603,-0.007689189,0.008316191
-0.017690583,-0.000520447,0.004367080,-0.054995442,-0.009940050,0.004227131,-0.001139373,-0.007688726,0.008302634
-0.017694615,-0.005262284,0.003352739,-0.052415331,-0.011533336,0.003935118,-0.001060913,-0.007688231,0.008289074
-0.017698647,-0.004561784,0.001830077,-0.049781007,-0.013114113,0.003642116,-0.000982227,-0.007687704,0.008275511
-0.017702679,-0.002875500,-0.000727924,-0.047110261,-0.014681128,0.003348235,-0.000903320,-0.007687145,0.008261945
-0.017706713,0.003692169,-0.003200435,-0.044420880,-0.016233129,0.003053588,-0.000824198,-0.007686555,0.008248376
-0.017710746,0.003651302,-0.004082960,-0.041728799,-0.017768865,0.002758285,-0.000744865,-0.007685933,0.008234803
-0.017714781,-0.006971549,-0.004393744,-0.039043682,-0.019287084,0.002462439,-0.000665327,-0.007685279,0.008221228
-0.017718816,-0.008845856,-0.003456863,-0.036373339,-0.020786534,0.002166162,-0.000585589,-0.007684593,0.008207650
-0.017722851,-0.006138097,-0.002099390,-0.033725579,-0.022265963,0.001869565,-0.000505656,-0.007683875,0.008194069
-0.017726887,-0.003643465,-0.000519681,-0.031108211,-0.023724119,0.001572759,-0.000425532,-0.007683126,0.008180485
-0.017730924,0.003842847,0.001083908,-0.028529044,-0.025159751,0.001275857,-0.000345224,-0.007682345,0.008166898
-0.017734961,0.011525649,0.002513020,-0.025995888,-0.026571607,0.000978971,-0.000264736,-0.007681532,0.008153309
-0.017738999,0.000290305,0.002888738,-0.023516552,-0.027958435,0.000682211,-0.000184074,-0.007680687,0.008139716
-0.017743038,-0.010541292,0.002895623,-0.021098845,-0.029318983,0.000385689,-0.000103242,-0.007679811,0.008126120
-0.017747077,-0.005631931,0.002202913,-0.018750577,-0.030651999,0.000089518,-0.000022245,-0.007678902,0.008112522
-0.017751116,-0.000448216,0.001389502,-0.016585395,-0.031956232,-0.000206191,0.000058910,-0.007677962,0.008098921
-0.017755156,0.009878010,0.000481357,-0.014498780,-0.033230429,-0.000501326,0.000140220,-0.007676990,0.008085317
-0.017759197,0.000216867,-0.000391685,-0.012492051,-0.034473339,-0.000795776,0.000221679,-0.007675986,0.008071710
-0.017763239,-0.009553655,-0.001107651,-0.010566527,-0.035683710,-0.001089429,0.000303282,-0.007674951,0.008058100
-0.017767280,-0.009535167,-0.001564969,-0.008723527,-0.036860290,-0.001382173,0.000385023,-0.007673883,0.008044488
-0.017771323,0.000244454,-0.001501133,-0.007199040,-0.038001828,-0.001673897,0.000466899,-0.007672783,0.008030873
-0.017775366,0.009775767,-0.001148390,-0.005752735,-0.039107071,-0.001964488,0.000548903,-0.007671652,0.008017255
-0.017779410,0.008671111,-0.000126099,-0.004378952,-0.040174768,-0.002253836,0.000631030,-0.007670489,0.008003635
-0.017783454,-0.002470038,0.000959245,-0.003072029,-0.041203666,-0.002541828,0.000713275,-0.007669293,0.007990011
-0.017787499,-0.013426422,0.001879364,-0.001826306,-0.042192515,-0.002828353,0.000795634,-0.007668066,0.007976385
-0.017791544,-0.009010141,0.002439339,-0.000636121,-0.043140062,-0.003113299,0.000878101,-0.007666807,0.007962757
-0.017795590,-0.009166731,0.002577687,0.000504186,-0.044045056,-0.003396554,0.000960671,-0.007665516,0.007949125
-0.017799636,0.016124916,0.002320186,0.000550190,-0.043910063,-0.003678007,0.001043338,-0.007664193,0.007935491
-0.017803683,0.008135575,0.000330513,0.000565503,-0.043733256,-0.003957545,0.001126099,-0.007662839,0.007921855
-0.017807731,0.000009702,-0.001547429,0.000689468,-0.043642440,-0.004235058,0.001208947,-0.007661452,0.007908216
-0.017811779,-0.008858579,-0.002719409,0.000808927,-0.043512922,-0.004510434,0.001291877,-0.007660033,0.007894574
-0.017815828,0.004862414,-0.001633747,0.001041538,-0.043345827,-0.004783560,0.001374885,-0.007658582,0.007880929
-0.017819877,-0.003598461,0.001587183,0.001281832,-0.043142277,-0.005054326,0.001457965,-0.007657100,0.007867282
-0.017823927,0.005302243,0.002401423,0.001529336,-0.043023792,-0.005202222,0.001541113,-0.007655585,0.007853633
-0.017827978,0.000879897,0.001429609,0.001849060,-0.042870998,-0.005347633,0.001624322,-0.007654038,0.007839981
-0.017832029,-0.008013240,-0.000101450,0.002162952,-0.042684918,-0.005490548,0.001707588,-0.007652459,0.007826326
-0.017836080,0.002629060,-0.001184398,0.002458444,-0.042466575,-0.005630954,0.001790906,-0.007650849,0.007812669
-0.017840132,0.008056220,-0.002055072,0.002722966,-0.042216994,-0.005768840,0.001874271,-0.007649206,0.007799010
-0.017844185,0.008203463,-0.002635107,0.002943947,-0.041937197,-0.005904192,0.001957677,-0.007647531,0.007785348
-0.017848238,0.007615818,-0.002350363,0.003003234,-0.041628207,-0.006037000,0.002041120,-0.007645825,0.007771683
-0.017852292,0.006777544,-0.001788032,0.003004777,-0.041291048,-0.006167251,0.002124594,-0.007644086,0.007758016
-0.017856346,0.000782711,-0.001039533,0.002946939,-0.040926742,-0.006294933,0.002208094,-0.007642315,0.007744347
-0.017860401,-0.010274612,-0.000196282,0.002828087,-0.040536314,-0.006420033,0.002291615,-0.007640512,0.007730675
-0.017864457,-0.011324486,0.000674431,0.002646585,-0.040120786,-0.006542541,0.002375152,-0.007638677,0.007717001
-0.017868513,0.012606517,0.001601830,0.002400798,-0.039681182,-0.006662443,0.002458700,-0.007636810,0.007703325
-0.017872570,0.006903912,0.002203052,0.002089093,-0.039218525,-0.006779728,0.002542254,-0.007634911,0.007689646
-0.017876627,0.001198072,0.002850372,0.001709834,-0.038733838,-0.006894384,0.002625808,-0.007632979,0.007675964
-0.017880684,-0.009444409,0.003479850,0.001261386,-0.038228144,-0.007006399,0.002709358,-0.007631016,0.007662281
-0.017884743,-0.014956943,0.004027548,0.000278380,-0.037238733,-0.007115760,0.002792898,-0.007629021,0.007648595
-0.017888802,-0.015538726,0.004695312,-0.000777416,-0.036230028,-0.007222455,0.002876424,-0.007626993,0.007634907
-0.017892861,-0.000577104,0.004873141,-0.001907972,-0.035202720,-0.007326474,0.002959929,-0.007624933,0.007621216
-0.017896921,0.010274787,0.004443789,-0.003342224,-0.034157499,-0.007427802,0.003043410,-0.007622842,0.007607523
-0.017900981,-0.006008295,0.001169673,-0.004816662,-0.033095054,-0.007526429,0.003126861,-0.007620718,0.007593828
-0.017905042,0.003648661,-0.003060078,-0.006294745,-0.032016076,-0.007622342,0.003210276,-0.007618561,0.007580131
-0.017909104,-0.005798514,-0.003237152,-0.007739932,-0.030921255,-0.007715530,0.003293651,-0.007616373,0.007566432
-0.017913166,0.008060627,-0.002015292,-0.008908244,-0.029811281,-0.007805979,0.003376980,-0.007614153,0.007552730
-0.017917229,0.006252876,-0.000254589,-0.010022964,-0.028629577,-0.007893679,0.003460259,-0.007611900,0.007539026
-0.017921292,0.014453319,0.001329132,-0.010984833,-0.027434675,-0.007978617,0.003543482,-0.007609615,0.007525320
-0.017925356,0.009124529,0.001232564,-0.011751855,-0.026227837,-0.008060781,0.003626645,-0.007607298,0.007511612
-0.017929420,-0.005745987,-0.000768057,-0.011086520,-0.025010328,-0.008140159,0.003709741,-0.007604949,0.007497902
-0.017933485,-0.015383238,-0.003244885,-0.010190407,-0.023783412,-0.008216739,0.003792766,-0.007602568,0.007484189
-0.017937550,-0.006060636,-0.005436473,-0.008550291,-0.022548354,-0.008290509,0.003875716,-0.007600154,0.007470475
-0.017941616,-0.006995212,-0.007585297,-0.006705413,-0.021306416,-0.008361456,0.003958584,-0.007597709,0.007456758
-0.017945683,0.006547603,-0.009404711,-0.004675726,-0.020058864,-0.008429570,0.004041365,-0.007595231,0.007443039
-0.017949750,0.009302375,-0.010608073,-0.002481184,-0.018806962,-0.008448470,0.004077689,-0.007592720,0.007429318
-0.017953818,-0.001009007,-0.008896061,-0.000141741,-0.017551973,-0.008464515,0.004113919,-0.007590178,0.007415595
-0.017957886,-0.012215370,-0.006418636,0.002322651,-0.016295161,-0.008477695,0.004150052,-0.007587603,0.007401870
-0.017961954,0.004611977,-0.002083281,0.004892039,-0.015037792,-0.008488000,0.004186086,-0.007584996,0.007388143
-0.017966024,0.010982516,0.002621735,0.007546467,-0.013781127,-0.008495421,0.004222018,-0.007582357,0.007374415
-0.017970093,0.017175928,0.007437940,0.010265984,-0.012526433,-0.008499948,0.004257846,-0.007579685,0.007360684
-0.017974164,0.013471892,0.012106866,0.013030635,-0.011274973,-0.008501571,0.004293567,-0.007576981,0.007346951
-0.017978234,0.000692040,0.015828092,0.015820468,-0.010028010,-0.008500282,0.004329179,-0.007574245,0.007333216
-0.017982306,-0.011674187,0.019133387,0.018615528,-0.008786810,-0.008496071,0.004364678,-0.007571477,0.007319479
-0.017986378,-0.008086477,0.021503650,0.021395863,-0.007552636,-0.008488927,0.004400063,-0.007568676,0.007305740
-0.017990450,0.005906164,0.023509096,0.024141519,-0.006326752,-0.008478843,0.004435331,-0.007565843,0.007292000
-0.017994523,0.010263652,0.025211021,0.026832542,-0.005110422,-0.008465808,0.004470480,-0.007562977,0.007278257
-0.017998597,-0.009162969,0.025779592,0.029448980,-0.003904910,-0.008449812,0.004505506,-0.007560080,0.007264513
-0.018002671,-0.006807275,0.024669594,0.031970878,-0.002711482,-0.008430847,0.004540407,-0.007557150,0.007250766
-0.018006745,0.000954232,0.023278741,0.034378283,-0.001531399,-0.008408902,0.004575181,-0.007554187,0.007237018
-0.018010820,-0.000854088,0.021603883,0.036651242,-0.000365927,-0.008383969,0.004609825,-0.007551192,0.007223268
-0.018014896,0.002792124,0.019641872,0.038769802,0.000783670,-0.008356038,0.004644337,-0.007548165,0.007209516
-0.018018972,0.011917226,0.017389559,0.040714008,0.001916128,-0.008325099,0.004678714,-0.007545106,0.007195763
-0.018023049,0.002564384,0.015053833,0.041235065,0.003030184,-0.008291142,0.004712953,-0.007542014,0.007182007
