0.1749222222
0.1749222222
0.1749222222
0.1749222222
0.1749222222
0.1749222222
0.1749222222
0.1749222222
0.1999222222
0.1849222222
0.1749222222
0.1699222222
0.1599222222
0.1649222222
0.1599222222
0.1449222222
0.1399222222
0.1349222222
0.1499222222
0.1649222222
0.1449222222
0.1399222222
0.1299222222
0.1399222222
0.1649222222
0.1849222222
0.1649222222
0.1299222222
0.1149222222
0.0849222222
0.0949222222
0.0749222222
0.0699222222
0.0599222222
0.0449222222
0.0449222222
0.0449222222
0.0549222222
0.0649222222
0.0549222222
0.0449222222
0.0299222222
0.0299222222
0.0299222222
0.0299222222
0.0349222222
0.0249222222
0.0149222222
0.0349222222
0.0449222222
0.0449222222
0.0399222222
0.0349222222
0.0149222222
0.0299222222
0.0199222222
0.0399222222
0.0299222222
0.0199222222
0.0049222222
-0.0000777778
-0.0150777778
-0.0400777778
-0.0650777778
-0.0650777778
-0.0850777778
-0.1350777778
-0.1650777778
-0.1650777778
-0.1050777778
-0.0100777778
0.0999222222
0.2499222222
0.4399222222
0.6949222222
0.9399222222
1.0999222222
1.1599222222
1.0849222222
0.8399222222
0.4899222222
0.1549222222
-0.0450777778
-0.1150777778
-0.1050777778
-0.0500777778
-0.0100777778
-0.0050777778
-0.0150777778
-0.0250777778
-0.0100777778
-0.0050777778
0.0049222222
0.0099222222
-0.0000777778
-0.0150777778
-0.0200777778
-0.0050777778
-0.0250777778
-0.0150777778
-0.0100777778
-0.0150777778
-0.0100777778
-0.0050777778
-0.0100777778
-0.0100777778
-0.0250777778
-0.0350777778
-0.0150777778
-0.0050777778
0.0149222222
-0.0000777778
-0.0000777778
-0.0100777778
-0.0200777778
-0.0150777778
-0.0200777778
-0.0250777778
-0.0350777778
-0.0350777778
-0.0200777778
-0.0100777778
-0.0100777778
-0.0100777778
-0.0200777778
-0.0300777778
-0.0050777778
-0.0050777778
-0.0100777778
-0.0100777778
-0.0150777778
-0.0150777778
-0.0200777778
-0.0100777778
-0.0200777778
-0.0300777778
-0.0350777778
-0.0300777778
-0.0250777778
-0.0100777778
-0.0000777778
-0.0150777778
-0.0100777778
-0.0250777778
-0.0100777778
-0.0150777778
-0.0150777778
-0.0250777778
-0.0250777778
-0.0350777778
-0.0200777778
-0.0200777778
-0.0150777778
-0.0100777778
-0.0300777778
-0.0300777778
-0.0250777778
-0.0150777778
-0.0150777778
-0.0150777778
-0.0300777778
-0.0350777778
-0.0350777778
-0.0250777778
-0.0250777778
-0.0150777778
-0.0300777778
-0.0400777778
-0.0400777778
-0.0400777778
-0.0450777778
-0.0400777778
-0.0500777778
-0.0650777778
-0.0500777778
-0.0400777778
-0.0350777778
-0.0400777778
-0.0550777778
-0.0550777778
-0.0450777778
-0.0450777778
-0.0400777778
-0.0400777778
-0.0450777778
-0.0500777778
-0.0350777778
-0.0100777778
-0.0050777778
-0.0050777778
-0.0150777778
-0.0200777778
0.0049222222
0.0199222222
0.0199222222
0.0299222222
0.0249222222
0.0299222222
0.0349222222
0.0449222222
0.0649222222
0.0699222222
0.0699222222
0.0549222222
0.0649222222
0.0749222222
0.0899222222
0.0749222222
0.0749222222
0.0649222222
0.0649222222
0.0799222222
0.0699222222
0.0649222222
0.0749222222
0.0649222222
0.0699222222
0.0699222222
0.0549222222
0.0599222222
0.0599222222
0.0549222222
0.0499222222
0.0549222222
0.0599222222
0.0449222222
0.0399222222
0.0299222222
0.0449222222
0.0499222222
0.0599222222
0.0399222222
0.0399222222
0.0349222222
0.0449222222
0.0449222222
0.0549222222
0.0499222222
0.0349222222
0.0299222222
0.0399222222
0.0449222222
0.0349222222
0.0399222222
0.0199222222
0.0199222222
0.0149222222
0.0249222222
0.0199222222
0.0099222222
0.0099222222
0.0149222222
0.0249222222
0.0349222222
0.0349222222
0.0299222222
0.0249222222
0.0099222222
0.0299222222
0.0249222222
0.0199222222
0.0149222222
0.0099222222
-0.0050777778
0.0099222222
0.0199222222
0.0299222222
0.0099222222
-0.0050777778
-0.0100777778
0.0049222222
0.0199222222
0.0149222222
0.0099222222
-0.0000777778
-0.0100777778
-0.0050777778
0.0049222222
0.0099222222
0.0149222222
0.0149222222
0.0099222222
0.0199222222
0.0149222222
0.0299222222
0.0199222222
0.0199222222
0.0149222222
0.0149222222
0.0299222222
0.0399222222
0.0249222222
0.0149222222
0.0049222222
0.0149222222
0.0249222222
0.0299222222
0.0399222222
0.0499222222
0.0449222222
0.0449222222
0.0499222222
0.0699222222
0.0699222222
0.0649222222
0.0949222222
0.0999222222
0.1149222222
0.1199222222
0.1149222222
0.1049222222
0.0899222222
0.0999222222
0.0949222222
0.0949222222
0.0949222222
0.0899222222
0.0849222222
0.0799222222
0.0849222222
0.0999222222
0.1099222222
0.1149222222
0.0749222222
0.0349222222
0.0349222222
0.0199222222
0.0099222222
-0.0100777778
-0.0100777778
-0.0050777778
0.0049222222
-0.0000777778
0.0049222222
-0.0050777778
-0.0200777778
-0.0250777778
-0.0200777778
-0.0200777778
-0.0300777778
-0.0250777778
-0.0350777778
-0.0100777778
-0.0150777778
-0.0100777778
-0.0000777778
-0.0250777778
-0.0350777778
-0.0200777778
-0.0100777778
-0.0050777778
-0.0100777778
-0.0300777778
-0.0450777778
-0.0400777778
-0.0600777778
-0.1050777778
-0.1250777778
-0.1550777778
-0.1900777778
-0.2150777778
-0.1850777778
-0.0950777778
0.0199222222
0.1599222222
0.3049222222
0.5549222222
0.8099222222
1.0399222222
1.1949222222
1.2599222222
1.2249222222
1.0749222222
0.8099222222
0.4849222222
0.2099222222
0.0499222222
-0.0700777778
-0.1300777778
-0.1550777778
-0.1350777778
-0.1050777778
-0.0700777778
-0.0700777778
-0.0650777778
-0.0700777778
-0.0600777778
-0.0600777778
-0.0600777778
-0.0750777778
-0.0650777778
-0.0650777778
-0.0650777778
-0.0550777778
-0.0750777778
-0.0900777778
-0.0900777778
-0.0800777778
-0.0750777778
-0.0700777778
-0.0850777778
-0.0750777778
-0.0650777778
-0.0550777778
-0.0700777778
-0.0700777778
-0.0850777778
-0.0900777778
-0.0900777778
-0.0700777778
-0.0700777778
-0.0750777778
-0.0850777778
-0.0950777778
-0.0800777778
-0.0900777778
-0.0850777778
-0.0900777778
-0.0950777778
-0.0900777778
-0.0800777778
-0.0800777778
-0.0750777778
-0.0700777778
-0.0850777778
-0.0900777778
-0.0700777778
-0.0700777778
-0.0650777778
-0.0650777778
-0.0900777778
-0.0850777778
-0.0750777778
-0.0700777778
-0.0550777778
-0.0700777778
-0.0750777778
-0.0900777778
-0.0800777778
-0.0700777778
-0.0700777778
-0.0650777778
-0.0850777778
-0.0950777778
-0.0950777778
-0.0800777778
-0.0750777778
-0.0850777778
-0.0950777778
-0.1000777778
-0.1000777778
-0.0900777778
-0.0950777778
-0.1050777778
-0.1000777778
-0.1150777778
-0.1100777778
-0.1100777778
-0.1000777778
-0.1100777778
-0.1300777778
-0.1350777778
-0.1300777778
-0.1150777778
-0.1250777778
-0.1300777778
-0.1350777778
-0.1500777778
-0.1400777778
-0.1350777778
-0.1300777778
-0.1350777778
-0.1500777778
-0.1550777778
-0.1400777778
-0.1300777778
-0.1250777778
-0.1200777778
-0.1150777778
-0.1200777778
-0.0900777778
-0.0750777778
-0.0500777778
-0.0450777778
-0.0400777778
-0.0450777778
-0.0200777778
-0.0050777778
0.0049222222
-0.0000777778
-0.0100777778
-0.0100777778
-0.0000777778
0.0099222222
0.0199222222
0.0199222222
-0.0000777778
-0.0000777778
0.0049222222
0.0149222222
0.0149222222
0.0249222222
-0.0000777778
-0.0100777778
0.0149222222
0.0099222222
0.0199222222
0.0199222222
-0.0000777778
-0.0050777778
0.0099222222
0.0149222222
0.0049222222
0.0149222222
0.0049222222
0.0049222222
0.0099222222
0.0249222222
0.0299222222
0.0149222222
0.0099222222
-0.0000777778
0.0049222222
0.0199222222
0.0049222222
0.0049222222
0.0049222222
-0.0100777778
0.0049222222
-0.0000777778
0.0049222222
-0.0050777778
-0.0150777778
-0.0200777778
-0.0150777778
-0.0150777778
-0.0100777778
-0.0050777778
-0.0250777778
-0.0300777778
-0.0250777778
-0.0150777778
-0.0100777778
-0.0100777778
-0.0250777778
-0.0250777778
-0.0250777778
-0.0000777778
-0.0100777778
-0.0150777778
-0.0200777778
-0.0350777778
-0.0150777778
-0.0100777778
-0.0100777778
-0.0150777778
-0.0350777778
-0.0400777778
-0.0350777778
-0.0300777778
-0.0200777778
-0.0250777778
-0.0250777778
-0.0250777778
-0.0250777778
-0.0100777778
-0.0100777778
-0.0150777778
-0.0250777778
-0.0300777778
-0.0300777778
-0.0200777778
-0.0100777778
-0.0250777778
-0.0250777778
-0.0350777778
-0.0300777778
-0.0200777778
-0.0100777778
-0.0200777778
-0.0200777778
-0.0200777778
-0.0100777778
-0.0150777778
-0.0100777778
-0.0150777778
-0.0250777778
-0.0250777778
-0.0200777778
-0.0100777778
0.0049222222
0.0249222222
0.0199222222
0.0249222222
0.0349222222
0.0449222222
0.0549222222
0.0549222222
0.0549222222
0.0649222222
0.0699222222
0.0799222222
0.0949222222
0.1049222222
0.0799222222
0.0749222222
0.0799222222
0.0749222222
0.0849222222
0.0749222222
0.0699222222
0.0449222222
0.0449222222
0.0549222222
0.0699222222
0.0949222222
0.0999222222
0.0899222222
0.0549222222
0.0499222222
0.0399222222
0.0349222222
0.0149222222
-0.0000777778
-0.0200777778
-0.0100777778
-0.0150777778
-0.0150777778
-0.0350777778
-0.0500777778
-0.0400777778
-0.0250777778
-0.0300777778
-0.0350777778
-0.0450777778
-0.0550777778
-0.0600777778
-0.0500777778
-0.0450777778
-0.0450777778
-0.0600777778
-0.0650777778
-0.0600777778
-0.0550777778
-0.0350777778
-0.0500777778
-0.0700777778
-0.0850777778
-0.0900777778
-0.1150777778
-0.1450777778
-0.1700777778
-0.2000777778
-0.2350777778
-0.2500777778
-0.2050777778
-0.0850777778
0.0699222222
0.2299222222
0.4399222222
0.7299222222
1.0099222222
1.2049222222
1.2799222222
1.1699222222
0.8399222222
0.3699222222
-0.0000777778
-0.1800777778
-0.1850777778
-0.1250777778
-0.0950777778
-0.0750777778
-0.0700777778
-0.0750777778
-0.0700777778
-0.0750777778
-0.0850777778
-0.0750777778
-0.0850777778
-0.0700777778
-0.0750777778
-0.0750777778
-0.0900777778
-0.0850777778
-0.0800777778
-0.0800777778
-0.0950777778
-0.0850777778
-0.1000777778
-0.0950777778
-0.0850777778
-0.0850777778
-0.1000777778
-0.1000777778
-0.1150777778
-0.1000777778
-0.0900777778
-0.0900777778
-0.0850777778
-0.1050777778
-0.1100777778
-0.1000777778
-0.0950777778
-0.0900777778
-0.0900777778
-0.1050777778
-0.1000777778
-0.0800777778
-0.0750777778
-0.0800777778
-0.0800777778
-0.0750777778
-0.0950777778
-0.0850777778
-0.0700777778
-0.0800777778
-0.0800777778
-0.0950777778
-0.1050777778
-0.1050777778
-0.0950777778
-0.0950777778
-0.0900777778
-0.1050777778
-0.1050777778
-0.1000777778
-0.0950777778
-0.0800777778
-0.0800777778
-0.0900777778
-0.1050777778
-0.0900777778
-0.0850777778
-0.0750777778
-0.0800777778
-0.0800777778
-0.0850777778
-0.0650777778
-0.0800777778
-0.0700777778
-0.0700777778
-0.0800777778
-0.0950777778
-0.0850777778
-0.0850777778
-0.0900777778
-0.0950777778
-0.1000777778
-0.1000777778
-0.1050777778
-0.0950777778
-0.0950777778
-0.0900777778
-0.1150777778
-0.1100777778
-0.1150777778
-0.1000777778
-0.1000777778
-0.1000777778
-0.1000777778
-0.1050777778
-0.1050777778
-0.0950777778
-0.0750777778
-0.0750777778
-0.0700777778
-0.0550777778
-0.0400777778
-0.0200777778
-0.0150777778
-0.0100777778
-0.0150777778
-0.0150777778
-0.0050777778
-0.0000777778
0.0149222222
0.0149222222
0.0049222222
0.0099222222
0.0149222222
0.0199222222
0.0199222222
0.0199222222
0.0099222222
0.0099222222
0.0099222222
0.0049222222
0.0199222222
0.0149222222
0.0049222222
-0.0000777778
-0.0050777778
0.0099222222
0.0149222222
0.0149222222
-0.0000777778
-0.0050777778
0.0149222222
0.0099222222
0.0249222222
0.0099222222
-0.0050777778
-0.0100777778
-0.0000777778
-0.0000777778
-0.0000777778
-0.0050777778
-0.0300777778
-0.0300777778
-0.0200777778
-0.0150777778
-0.0100777778
-0.0150777778
-0.0200777778
-0.0400777778
-0.0300777778
-0.0300777778
-0.0350777778
-0.0400777778
-0.0350777778
-0.0450777778
-0.0350777778
-0.0300777778
-0.0200777778
-0.0350777778
-0.0300777778
-0.0450777778
-0.0450777778
-0.0300777778
-0.0350777778
-0.0300777778
-0.0500777778
-0.0600777778
-0.0500777778
-0.0400777778
-0.0450777778
-0.0400777778
-0.0450777778
-0.0600777778
-0.0500777778
-0.0450777778
-0.0300777778
-0.0300777778
-0.0300777778
-0.0500777778
-0.0450777778
-0.0250777778
-0.0250777778
-0.0200777778
-0.0350777778
-0.0450777778
-0.0400777778
-0.0350777778
-0.0350777778
-0.0350777778
-0.0550777778
-0.0650777778
-0.0350777778
-0.0400777778
-0.0350777778
-0.0400777778
-0.0400777778
-0.0500777778
-0.0400777778
-0.0250777778
-0.0350777778
-0.0250777778
-0.0250777778
-0.0250777778
-0.0200777778
0.0099222222
0.0149222222
0.0149222222
0.0099222222
0.0149222222
0.0299222222
0.0349222222
0.0449222222
0.0399222222
0.0399222222
0.0449222222
0.0549222222
0.0649222222
0.0749222222
0.0599222222
0.0549222222
0.0449222222
0.0399222222
0.0549222222
0.0499222222
0.0449222222
0.0399222222
0.0449222222
0.0399222222
0.0449222222
0.0549222222
0.0649222222
0.0799222222
0.0599222222
0.0399222222
0.0099222222
0.0099222222
-0.0250777778
-0.0400777778
-0.0600777778
-0.0650777778
-0.0600777778
-0.0500777778
-0.0550777778
-0.0650777778
-0.0700777778
-0.0750777778
-0.0650777778
-0.0650777778
-0.0650777778
-0.0750777778
-0.0850777778
-0.0800777778
-0.0550777778
-0.0550777778
-0.0700777778
-0.0750777778
-0.0950777778
-0.0850777778
-0.0800777778
-0.0700777778
-0.0850777778
-0.1050777778
-0.1400777778
-0.1550777778
-0.1850777778
-0.1900777778
-0.2050777778
-0.2200777778
-0.2800777778
-0.3250777778
-0.3100777778
-0.2550777778
-0.1750777778
-0.0650777778
0.0499222222
0.2049222222
0.4099222222
0.6899222222
0.9549222222
1.1299222222
1.1799222222
1.0899222222
0.7949222222
0.3849222222
0.0149222222
-0.1800777778
-0.2000777778
-0.1550777778
-0.0900777778
-0.0700777778
-0.0700777778
-0.0800777778
-0.0900777778
-0.0850777778
-0.0650777778
-0.0700777778
-0.0750777778
-0.0850777778
-0.0900777778
-0.0850777778
-0.0800777778
-0.0700777778
-0.0750777778
-0.0900777778
-0.0950777778
-0.0900777778
-0.0750777778
-0.0850777778
-0.0900777778
-0.0850777778
-0.0850777778
-0.0900777778
-0.0700777778
-0.0650777778
-0.0700777778
-0.0750777778
-0.0800777778
-0.0800777778
-0.0800777778
-0.0750777778
-0.0750777778
-0.0850777778
-0.0850777778
-0.0800777778
-0.0750777778
-0.0650777778
-0.0550777778
-0.0650777778
-0.0750777778
-0.0700777778
-0.0650777778
-0.0550777778
-0.0650777778
-0.0750777778
-0.0750777778
-0.0650777778
-0.0550777778
-0.0550777778
-0.0650777778
-0.0750777778
-0.0700777778
-0.0700777778
-0.0450777778
-0.0550777778
-0.0650777778
-0.0750777778
-0.0600777778
-0.0650777778
-0.0550777778
-0.0600777778
-0.0700777778
-0.0600777778
-0.0550777778
-0.0550777778
-0.0550777778
-0.0550777778
-0.0600777778
-0.0700777778
-0.0700777778
-0.0450777778
-0.0500777778
-0.0550777778
-0.0650777778
-0.0700777778
-0.0700777778
-0.0550777778
-0.0450777778
-0.0650777778
-0.0600777778
-0.0700777778
-0.0550777778
-0.0550777778
-0.0450777778
-0.0500777778
-0.0650777778
-0.0750777778
-0.0650777778
-0.0650777778
-0.0500777778
-0.0450777778
-0.0500777778
-0.0550777778
-0.0300777778
-0.0150777778
-0.0000777778
0.0049222222
-0.0000777778
-0.0050777778
0.0049222222
0.0249222222
0.0349222222
0.0199222222
0.0249222222
0.0349222222
0.0349222222
0.0399222222
0.0499222222
0.0399222222
0.0299222222
0.0249222222
0.0249222222
0.0299222222
0.0399222222
0.0299222222
0.0249222222
0.0099222222
0.0249222222
0.0349222222
0.0399222222
0.0449222222
0.0249222222
0.0149222222
0.0199222222
0.0249222222
0.0249222222
0.0349222222
0.0199222222
0.0149222222
0.0199222222
0.0249222222
0.0199222222
0.0149222222
0.0049222222
0.0099222222
0.0049222222
0.0249222222
0.0199222222
0.0099222222
-0.0100777778
-0.0200777778
-0.0100777778
-0.0000777778
-0.0000777778
0.0049222222
-0.0050777778
-0.0150777778
-0.0100777778
0.0049222222
-0.0000777778
-0.0000777778
-0.0100777778
-0.0250777778
-0.0200777778
-0.0150777778
-0.0100777778
-0.0150777778
-0.0250777778
-0.0300777778
-0.0250777778
-0.0200777778
-0.0150777778
-0.0150777778
-0.0100777778
-0.0150777778
-0.0200777778
-0.0150777778
-0.0000777778
-0.0200777778
-0.0200777778
-0.0300777778
-0.0450777778
-0.0400777778
-0.0250777778
-0.0250777778
-0.0300777778
-0.0300777778
-0.0300777778
-0.0200777778
-0.0200777778
-0.0250777778
-0.0250777778
-0.0600777778
-0.0400777778
-0.0400777778
-0.0250777778
-0.0250777778
-0.0300777778
-0.0350777778
-0.0250777778
-0.0100777778
-0.0100777778
-0.0150777778
-0.0150777778
-0.0200777778
-0.0100777778
-0.0000777778
0.0299222222
0.0299222222
0.0199222222
0.0149222222
0.0349222222
0.0399222222
0.0449222222
0.0399222222
0.0449222222
0.0499222222
0.0549222222
0.0699222222
0.0899222222
0.0749222222
0.0799222222
0.0649222222
0.0649222222
0.0749222222
0.0849222222
0.0649222222
0.0549222222
0.0599222222
0.0649222222
0.0499222222
0.0549222222
0.0399222222
0.0649222222
0.0699222222
0.0749222222
0.0549222222
0.0399222222
0.0199222222
0.0049222222
-0.0050777778
-0.0150777778
-0.0250777778
-0.0100777778
-0.0150777778
-0.0250777778
-0.0400777778
-0.0300777778
-0.0200777778
-0.0150777778
-0.0250777778
-0.0400777778
-0.0450777778
-0.0550777778
-0.0500777778
-0.0450777778
-0.0450777778
-0.0600777778
-0.0550777778
-0.0550777778
-0.0450777778
-0.0500777778
-0.0400777778
-0.0500777778
-0.0600777778
-0.0450777778
-0.0400777778
-0.0300777778
-0.0350777778
-0.0500777778
-0.0650777778
-0.0750777778
-0.1100777778
-0.1250777778
-0.1650777778
-0.1950777778
-0.2450777778
-0.2350777778
-0.1550777778
-0.0350777778
0.0999222222
0.2649222222
0.5049222222
0.7949222222
1.0249222222
1.1399222222
1.0999222222
0.8549222222
0.4649222222
0.1199222222
-0.1000777778
-0.1800777778
-0.1600777778
-0.1300777778
-0.0900777778
-0.0800777778
-0.0700777778
-0.0700777778
-0.0800777778
-0.0850777778
-0.1050777778
-0.1050777778
-0.0850777778
-0.0750777778
-0.0850777778
-0.0850777778
-0.0950777778
-0.0850777778
-0.0650777778
-0.0700777778
-0.0750777778
-0.0750777778
-0.0750777778
-0.0750777778
-0.0650777778
-0.0700777778
-0.0700777778
-0.0800777778
-0.1050777778
-0.0900777778
-0.0800777778
-0.0750777778
-0.0800777778
-0.0850777778
-0.1050777778
-0.0950777778
-0.0850777778
-0.0850777778
-0.0850777778
-0.0900777778
-0.0950777778
-0.0850777778
-0.1000777778
-0.0850777778
-0.0900777778
-0.0900777778
-0.1000777778
-0.0950777778
-0.0850777778
-0.0750777778
-0.0750777778
-0.0750777778
-0.0800777778
-0.0750777778
-0.0750777778
-0.0850777778
-0.0850777778
-0.1000777778
-0.1150777778
-0.0950777778
-0.0850777778
-0.0750777778
-0.0700777778
-0.0950777778
-0.0850777778
-0.0850777778
-0.0800777778
-0.0750777778
-0.0750777778
-0.0850777778
-0.1000777778
-0.0950777778
-0.0800777778
-0.0750777778
-0.0800777778
-0.0850777778
-0.1050777778
-0.1050777778
-0.1050777778
-0.1000777778
-0.1050777778
-0.1300777778
-0.1250777778
-0.1300777778
-0.1150777778
-0.1250777778
-0.1500777778
-0.1350777778
-0.1400777778
-0.1200777778
-0.1150777778
-0.1050777778
-0.1100777778
-0.1250777778
-0.1300777778
-0.1250777778
-0.1100777778
-0.1000777778
-0.0900777778
-0.1050777778
-0.1000777778
-0.0850777778
-0.0600777778
-0.0500777778
-0.0450777778
-0.0450777778
-0.0450777778
-0.0250777778
-0.0100777778
0.0049222222
0.0149222222
0.0149222222
-0.0000777778
0.0099222222
0.0099222222
0.0149222222
0.0099222222
0.0049222222
-0.0000777778
0.0049222222
0.0149222222
0.0149222222
0.0249222222
0.0099222222
-0.0000777778
0.0099222222
0.0049222222
0.0249222222
0.0199222222
0.0149222222
0.0199222222
0.0349222222
0.0399222222
0.0299222222
0.0249222222
0.0149222222
-0.0050777778
0.0149222222
0.0199222222
0.0199222222
0.0049222222
-0.0050777778
-0.0150777778
-0.0050777778
0.0049222222
-0.0000777778
-0.0150777778
-0.0100777778
-0.0200777778
-0.0050777778
-0.0050777778
-0.0000777778
0.0049222222
-0.0150777778
-0.0150777778
-0.0250777778
-0.0150777778
-0.0050777778
-0.0100777778
0.0049222222
-0.0150777778
-0.0100777778
-0.0100777778
-0.0100777778
-0.0100777778
-0.0150777778
-0.0200777778
-0.0100777778
-0.0000777778
0.0049222222
-0.0050777778
-0.0150777778
-0.0350777778
-0.0250777778
-0.0200777778
-0.0150777778
-0.0000777778
-0.0050777778
-0.0300777778
-0.0100777778
0.0049222222
0.0049222222
-0.0100777778
-0.0100777778
-0.0150777778
-0.0150777778
-0.0100777778
-0.0100777778
-0.0100777778
-0.0200777778
-0.0200777778
-0.0200777778
-0.0050777778
-0.0050777778
-0.0050777778
-0.0250777778
-0.0300777778
-0.0200777778
-0.0100777778
-0.0000777778
0.0099222222
0.0149222222
0.0149222222
0.0449222222
0.0499222222
0.0649222222
0.0599222222
0.0549222222
0.0599222222
0.0699222222
0.0849222222
0.0849222222
0.0999222222
0.0849222222
0.0849222222
0.0999222222
0.0899222222
0.0949222222
0.0849222222
0.0749222222
0.0649222222
0.0799222222
0.0899222222
0.0899222222
0.0699222222
0.0649222222
0.0699222222
0.0899222222
0.1149222222
0.1249222222
0.1099222222
0.0899222222
0.0499222222
0.0499222222
0.0349222222
0.0349222222
0.0099222222
-0.0100777778
-0.0200777778
-0.0200777778
-0.0250777778
-0.0300777778
-0.0300777778
-0.0200777778
-0.0350777778
-0.0250777778
-0.0200777778
-0.0200777778
-0.0250777778
-0.0350777778
-0.0500777778
-0.0350777778
-0.0500777778
-0.0250777778
-0.0200777778
-0.0400777778
-0.0600777778
-0.0400777778
-0.0250777778
-0.0300777778
-0.0300777778
-0.0350777778
-0.0600777778
-0.0700777778
-0.0750777778
-0.1050777778
-0.1350777778
-0.1550777778
-0.1900777778
-0.2250777778
-0.2200777778
-0.1750777778
-0.0850777778
0.0249222222
0.1599222222
0.3599222222
0.6349222222
0.9149222222
1.1199222222
1.2049222222
1.1149222222
0.8399222222
0.4499222222
0.1049222222
-0.1050777778
-0.1800777778
-0.1700777778
-0.1300777778
-0.0800777778
-0.0700777778
-0.0750777778
-0.0750777778
-0.0800777778
-0.0700777778
-0.0600777778
-0.0650777778
-0.0650777778
-0.0800777778
-0.0900777778
-0.0900777778
-0.0700777778
-0.0700777778
-0.0850777778
-0.0850777778
-0.0950777778
-0.0900777778
-0.0750777778
-0.0750777778
-0.0800777778
-0.0950777778
-0.0950777778
-0.0950777778
-0.0800777778
-0.0700777778
-0.0700777778
-0.0900777778
-0.0950777778
-0.0850777778
-0.0750777778
-0.0750777778
-0.0750777778
-0.0850777778
-0.0900777778
-0.0900777778
-0.0800777778
-0.0700777778
-0.0750777778
-0.0900777778
-0.1050777778
-0.0950777778
-0.0850777778
-0.0900777778
-0.0850777778
-0.0950777778
-0.1050777778
-0.1050777778
-0.0900777778
-0.0750777778
-0.0700777778
-0.0800777778
-0.0900777778
-0.0900777778
-0.0800777778
-0.0700777778
-0.0900777778
-0.1000777778
-0.1000777778
-0.0950777778
-0.0950777778
-0.0850777778
-0.1000777778
-0.0950777778
-0.1050777778
-0.0900777778
-0.0800777778
-0.0850777778
-0.0800777778
-0.0800777778
-0.0900777778
-0.0800777778
-0.0750777778
-0.0750777778
-0.0850777778
-0.0900777778
-0.1050777778
-0.1050777778
-0.0900777778
-0.0900777778
-0.1000777778
-0.1100777778
-0.1250777778
-0.1200777778
-0.1150777778
-0.1100777778
-0.1100777778
-0.1300777778
-0.1250777778
-0.1250777778
-0.1150777778
-0.1150777778
-0.1250777778
-0.1200777778
-0.1300777778
-0.1100777778
-0.1100777778
-0.0950777778
-0.0800777778
-0.0800777778
-0.0650777778
-0.0450777778
-0.0150777778
-0.0100777778
-0.0050777778
-0.0100777778
-0.0100777778
0.0099222222
0.0249222222
0.0349222222
0.0299222222
0.0299222222
0.0099222222
0.0249222222
0.0349222222
0.0399222222
0.0199222222
0.0299222222
0.0249222222
0.0299222222
0.0399222222
0.0449222222
0.0449222222
0.0299222222
0.0299222222
0.0349222222
0.0499222222
0.0499222222
0.0499222222
0.0449222222
0.0299222222
0.0349222222
0.0449222222
0.0449222222
0.0299222222
0.0249222222
0.0149222222
0.0249222222
0.0249222222
0.0349222222
0.0299222222
0.0199222222
0.0149222222
0.0099222222
0.0249222222
0.0199222222
0.0149222222
0.0099222222
-0.0050777778
-0.0050777778
0.0049222222
0.0099222222
0.0049222222
0.0049222222
-0.0050777778
-0.0000777778
0.0099222222
-0.0000777778
0.0049222222
-0.0100777778
-0.0100777778
-0.0000777778
0.0099222222
0.0099222222
0.0099222222
-0.0100777778
-0.0150777778
-0.0100777778
-0.0000777778
-0.0050777778
-0.0050777778
-0.0100777778
-0.0150777778
-0.0100777778
-0.0050777778
-0.0050777778
-0.0000777778
-0.0050777778
-0.0100777778
-0.0050777778
0.0049222222
0.0149222222
-0.0050777778
0.0049222222
-0.0150777778
-0.0100777778
0.0099222222
-0.0000777778
-0.0100777778
-0.0100777778
-0.0150777778
-0.0100777778
-0.0100777778
-0.0000777778
-0.0000777778
-0.0100777778
-0.0100777778
-0.0050777778
0.0049222222
0.0049222222
0.0049222222
-0.0100777778
-0.0100777778
-0.0000777778
0.0049222222
0.0149222222
0.0149222222
0.0249222222
0.0049222222
0.0199222222
0.0449222222
0.0649222222
0.0649222222
0.0599222222
0.0549222222
0.0649222222
0.0849222222
0.0899222222
0.0949222222
0.0999222222
0.0999222222
0.1049222222
0.1199222222
0.1149222222
0.1149222222
0.0949222222
0.0849222222
0.0799222222
0.0899222222
0.1049222222
0.0799222222
0.0799222222
0.0699222222
0.0849222222
0.1099222222
0.1199222222
0.0999222222
0.0649222222
0.0449222222
0.0349222222
0.0199222222
0.0149222222
-0.0000777778
-0.0100777778
-0.0050777778
-0.0000777778
-0.0100777778
-0.0100777778
-0.0150777778
-0.0200777778
-0.0250777778
-0.0200777778
-0.0150777778
-0.0000777778
-0.0050777778
-0.0150777778
-0.0250777778
-0.0250777778
-0.0250777778
-0.0150777778
-0.0200777778
-0.0250777778
-0.0350777778
-0.0200777778
-0.0200777778
-0.0200777778
-0.0200777778
-0.0250777778
-0.0350777778
-0.0450777778
-0.0500777778
-0.0850777778
-0.1250777778
-0.1600777778
-0.1750777778
-0.2000777778
-0.2150777778
-0.1850777778
-0.0950777778
0.0399222222
0.1849222222
0.3849222222
0.6199222222
0.8999222222
1.1299222222
1.2649222222
1.2399222222
1.0949222222
0.7649222222
0.3399222222
0.0249222222
-0.1250777778
-0.1500777778
-0.1050777778
-0.0600777778
-0.0400777778
-0.0400777778
-0.0500777778
-0.0600777778
-0.0600777778
-0.0550777778
-0.0500777778
-0.0450777778
-0.0500777778
-0.0650777778
-0.0650777778
-0.0550777778
-0.0500777778
-0.0500777778
-0.0650777778
-0.0750777778
-0.0650777778
-0.0650777778
-0.0700777778
-0.0650777778
-0.0750777778
-0.0900777778
-0.0800777778
-0.0750777778
-0.0600777778
-0.0750777778
-0.0750777778
-0.0800777778
-0.0800777778
-0.0750777778
-0.0700777778
-0.0700777778
-0.0750777778
-0.0850777778
-0.0700777778
-0.0650777778
-0.0550777778
-0.0550777778
-0.0600777778
-0.0700777778
-0.0650777778
-0.0500777778
-0.0500777778
-0.0500777778
-0.0550777778
-0.0650777778
-0.0500777778
-0.0700777778
-0.0550777778
-0.0500777778
-0.0600777778
-0.0700777778
-0.0700777778
-0.0650777778
-0.0550777778
-0.0550777778
-0.0650777778
-0.0750777778
-0.0700777778
-0.0650777778
-0.0550777778
-0.0600777778
-0.0650777778
-0.0700777778
-0.0600777778
-0.0600777778
-0.0500777778
-0.0500777778
-0.0450777778
-0.0700777778
-0.0450777778
-0.0450777778
-0.0400777778
-0.0550777778
-0.0600777778
-0.0800777778
-0.0700777778
-0.0550777778
-0.0550777778
-0.0500777778
-0.0650777778
-0.0700777778
-0.0700777778
-0.0700777778
-0.0700777778
-0.0550777778
-0.0650777778
-0.0750777778
-0.0600777778
-0.0500777778
-0.0550777778
-0.0550777778
-0.0700777778
-0.0850777778
-0.0550777778
-0.0500777778
-0.0400777778
-0.0550777778
-0.0650777778
-0.0600777778
-0.0500777778
-0.0400777778
-0.0250777778
-0.0250777778
-0.0100777778
-0.0100777778
0.0049222222
0.0099222222
0.0249222222
0.0349222222
0.0349222222
0.0249222222
0.0399222222
0.0499222222
0.0399222222
0.0399222222
0.0399222222
0.0299222222
0.0299222222
0.0399222222
0.0449222222
0.0399222222
0.0349222222
0.0299222222
0.0299222222
0.0399222222
0.0399222222
0.0349222222
0.0299222222
0.0199222222
0.0249222222
0.0349222222
0.0399222222
0.0349222222
0.0349222222
0.0249222222
0.0349222222
0.0399222222
0.0449222222
0.0399222222
0.0299222222
0.0099222222
0.0149222222
0.0349222222
0.0499222222
0.0499222222
0.0449222222
0.0349222222
0.0349222222
0.0499222222
0.0549222222
0.0549222222
0.0549222222
0.0399222222
0.0549222222
0.0749222222
0.0849222222
0.0849222222
0.0699222222
0.0699222222
0.0749222222
0.1049222222
0.0999222222
0.0749222222
0.0649222222
0.0899222222
0.1149222222
0.1099222222
0.0999222222
0.0899222222
0.0799222222
0.0799222222
0.0749222222
0.0699222222
0.0499222222
0.0349222222
0.0049222222
-0.0000777778
-0.0000777778
0.0099222222
-0.0100777778
-0.0200777778
-0.0250777778
-0.0400777778
-0.0450777778
-0.0400777778
-0.0300777778
-0.0350777778
-0.0550777778
-0.0650777778
-0.0550777778
-0.0500777778
-0.0450777778
-0.0450777778
-0.0500777778
-0.0600777778
-0.0400777778
-0.0300777778
-0.0350777778
-0.0350777778
-0.0300777778
-0.0450777778
-0.0300777778
-0.0300777778
-0.0200777778
-0.0350777778
-0.0300777778
-0.0550777778
-0.0450777778
-0.0550777778
-0.0800777778
-0.1100777778
-0.1550777778
-0.2000777778
-0.2000777778
-0.2300777778
-0.2500777778
-0.2200777778
-0.1250777778
0.0149222222
0.1799222222
0.3449222222
0.5799222222
0.8299222222
1.0549222222
1.1649222222
1.1949222222
1.0549222222
0.7199222222
0.2949222222
-0.0150777778
-0.1600777778
-0.1500777778
-0.0950777778
-0.0550777778
-0.0450777778
-0.0650777778
-0.0800777778
-0.0600777778
-0.0700777778
-0.0550777778
-0.0650777778
-0.0750777778
-0.0850777778
-0.0700777778
-0.0600777778
-0.0650777778
-0.0650777778
-0.0750777778
-0.0800777778
-0.0850777778
-0.0800777778
-0.0700777778
-0.0700777778
-0.0750777778
-0.0800777778
-0.0700777778
-0.0650777778
-0.0700777778
-0.0650777778
-0.0900777778
-0.1000777778
-0.0850777778
-0.0900777778
-0.0700777778
-0.0700777778
-0.0700777778
-0.0800777778
-0.0800777778
-0.0700777778
-0.0550777778
-0.0600777778
-0.0750777778
-0.0800777778
-0.0700777778
-0.0800777778
-0.0700777778
-0.0750777778
-0.0900777778
-0.0950777778
-0.0850777778
-0.0650777778
-0.0650777778
-0.0600777778
-0.0800777778
-0.0800777778
-0.0750777778
-0.0700777778
-0.0600777778
-0.0550777778
-0.0750777778
-0.0750777778
-0.0650777778
-0.0600777778
-0.0550777778
-0.0650777778
-0.0700777778
-0.0800777778
-0.0800777778
-0.0650777778
-0.0600777778
-0.0750777778
-0.0700777778
-0.0800777778
-0.0750777778
-0.0650777778
-0.0600777778
-0.0650777778
-0.0750777778
-0.0850777778
-0.0800777778
-0.0700777778
-0.0600777778
-0.0600777778
-0.0650777778
-0.0850777778
-0.0750777778
-0.0800777778
-0.0700777778
-0.0800777778
-0.0850777778
-0.1050777778
-0.1000777778
-0.0850777778
-0.0800777778
-0.0850777778
-0.0850777778
-0.0950777778
-0.0800777778
-0.0700777778
-0.0600777778
-0.0650777778
-0.0750777778
-0.0850777778
-0.0700777778
-0.0500777778
-0.0500777778
-0.0500777778
-0.0650777778
-0.0500777778
-0.0350777778
-0.0250777778
-0.0200777778
-0.0150777778
-0.0200777778
-0.0350777778
-0.0150777778
-0.0050777778
0.0099222222
0.0149222222
0.0149222222
-0.0000777778
0.0049222222
0.0099222222
0.0149222222
0.0149222222
-0.0100777778
-0.0050777778
-0.0250777778
-0.0050777778
0.0049222222
0.0049222222
0.0149222222
0.0099222222
0.0099222222
0.0199222222
0.0149222222
0.0149222222
0.0049222222
-0.0000777778
-0.0050777778
0.0049222222
0.0149222222
0.0049222222
-0.0050777778
-0.0050777778
-0.0100777778
0.0049222222
0.0049222222
0.0099222222
-0.0100777778
-0.0200777778
-0.0150777778
-0.0100777778
-0.0250777778
-0.0350777778
-0.0450777778
-0.0500777778
-0.0250777778
-0.0200777778
-0.0200777778
-0.0250777778
-0.0400777778
-0.0450777778
-0.0400777778
-0.0400777778
-0.0250777778
-0.0350777778
-0.0450777778
-0.0300777778
-0.0400777778
-0.0300777778
-0.0200777778
-0.0250777778
-0.0350777778
-0.0500777778
-0.0300777778
-0.0300777778
-0.0300777778
-0.0250777778
-0.0300777778
-0.0350777778
-0.0400777778
-0.0250777778
-0.0350777778
-0.0300777778
-0.0400777778
-0.0500777778
-0.0350777778
-0.0350777778
-0.0300777778
-0.0350777778
-0.0400777778
-0.0700777778
-0.0650777778
-0.0400777778
-0.0400777778
-0.0500777778
-0.0500777778
-0.0700777778
-0.0550777778
-0.0500777778
-0.0300777778
-0.0200777778
-0.0250777778
-0.0400777778
-0.0400777778
-0.0300777778
-0.0300777778
-0.0150777778
-0.0400777778
-0.0450777778
-0.0450777778
-0.0400777778
-0.0400777778
-0.0450777778
-0.0550777778
-0.0650777778
-0.0650777778
-0.0450777778
-0.0500777778
-0.0550777778
-0.0500777778
-0.0550777778
-0.0450777778
-0.0350777778
-0.0350777778
-0.0400777778
-0.0450777778
-0.0500777778
-0.0400777778
-0.0300777778
-0.0200777778
-0.0250777778
-0.0200777778
-0.0300777778
-0.0250777778
-0.0300777778
-0.0400777778
-0.0300777778
-0.0400777778
-0.0500777778
-0.0400777778
-0.0400777778
-0.0350777778
-0.0400777778
-0.0550777778
-0.0550777778
-0.0500777778
-0.0300777778
-0.0350777778
-0.0400777778
-0.0450777778
-0.0550777778
-0.0500777778
-0.0450777778
-0.0400777778
-0.0350777778
-0.0400777778
-0.0400777778
-0.0300777778
-0.0200777778
-0.0250777778
-0.0250777778
-0.0350777778
-0.0400777778
-0.0400777778
-0.0450777778
-0.0250777778
-0.0350777778
-0.0300777778
-0.0400777778
-0.0350777778
-0.0400777778
-0.0250777778
-0.0150777778
-0.0100777778
-0.0100777778
0.0099222222
0.0149222222
0.0199222222
0.0149222222
0.0249222222
0.0149222222
0.0349222222
0.0449222222
0.0549222222
0.0649222222
0.0649222222
0.0599222222
0.0549222222
0.0649222222
0.0649222222
0.0599222222
0.0399222222
0.0299222222
0.0399222222
0.0499222222
0.0649222222
0.0449222222
0.0299222222
-0.0000777778
0.0199222222
0.0249222222
0.0499222222
0.0549222222
0.0499222222
0.0349222222
0.0199222222
0.0099222222
0.0049222222
-0.0000777778
-0.0300777778
-0.0500777778
-0.0450777778
-0.0450777778
-0.0450777778
-0.0500777778
-0.0500777778
-0.0500777778
-0.0600777778
-0.0400777778
-0.0550777778
-0.0550777778
-0.0800777778
-0.1000777778
-0.0850777778
-0.0800777778
-0.0650777778
-0.0600777778
-0.0800777778
-0.0950777778
-0.0850777778
-0.0750777778
-0.0750777778
-0.0750777778
-0.0900777778
-0.1100777778
-0.1200777778
-0.1350777778
-0.1700777778
-0.1650777778
-0.2000777778
-0.2500777778
-0.2550777778
-0.2050777778
-0.1000777778
0.0149222222
0.1299222222
0.2999222222
0.5399222222
0.8049222222
1.0349222222
1.1649222222
1.2049222222
1.1099222222
0.8799222222
0.5449222222
0.2499222222
0.0349222222
-0.1050777778
-0.1800777778
-0.2300777778
-0.2150777778
-0.1800777778
-0.1450777778
-0.1300777778
-0.1300777778
-0.1150777778
-0.1000777778
-0.0900777778
-0.0900777778
-0.0950777778
-0.1000777778
-0.1050777778
-0.1000777778
-0.1100777778
-0.1100777778
-0.1200777778
-0.1300777778
-0.1300777778
-0.1100777778
-0.1100777778
-0.1100777778
-0.1250777778
-0.1250777778
-0.1200777778
-0.1050777778
-0.1100777778
-0.1100777778
-0.1050777778
-0.1250777778
-0.1250777778
-0.1100777778
-0.1150777778
-0.1150777778
-0.1250777778
-0.1250777778
-0.1150777778
-0.1100777778
-0.1050777778
-0.1100777778
-0.1100777778
-0.1200777778
-0.1000777778
-0.1100777778
-0.1050777778
-0.1100777778
-0.1200777778
-0.1200777778
-0.1100777778
-0.1100777778
-0.0950777778
-0.1050777778
-0.1100777778
-0.1350777778
-0.1250777778
-0.1250777778
-0.1100777778
-0.1100777778
-0.1200777778
-0.1200777778
-0.1150777778
-0.1100777778
-0.0950777778
-0.0950777778
-0.1050777778
-0.1050777778
-0.1000777778
-0.0850777778
-0.0850777778
-0.0950777778
-0.0950777778
-0.1050777778
-0.1100777778
-0.0850777778
-0.0850777778
-0.0850777778
-0.0850777778
-0.1100777778
-0.0950777778
-0.0900777778
-0.0950777778
-0.1100777778
-0.1250777778
-0.1450777778
-0.1400777778
-0.1300777778
-0.1350777778
-0.1400777778
-0.1450777778
-0.1650777778
-0.1750777778
-0.1550777778
-0.1700777778
-0.1800777778
-0.1750777778
-0.1950777778
-0.1800777778
-0.1650777778
-0.1700777778
-0.1650777778
-0.1800777778
-0.1800777778
-0.1700777778
-0.1600777778
-0.1400777778
-0.1400777778
-0.1500777778
-0.1450777778
-0.1200777778
-0.1100777778
-0.1050777778
-0.0900777778
-0.0900777778
-0.0800777778
-0.0700777778
-0.0600777778
-0.0350777778
-0.0300777778
-0.0350777778
-0.0300777778
-0.0200777778
-0.0100777778
-0.0050777778
0.0149222222
-0.0000777778
0.0049222222
0.0149222222
0.0199222222
0.0149222222
0.0149222222
0.0099222222
-0.0100777778
0.0099222222
0.0049222222
0.0049222222
-0.0000777778
-0.0050777778
-0.0050777778
-0.0050777778
0.0099222222
0.0099222222
0.0049222222
-0.0050777778
-0.0100777778
-0.0050777778
-0.0050777778
0.0049222222
-0.0000777778
-0.0100777778
-0.0150777778
-0.0100777778
0.0049222222
-0.0000777778
-0.0000777778
-0.0150777778
-0.0150777778
-0.0050777778
-0.0050777778
-0.0000777778
-0.0000777778
-0.0050777778
-0.0300777778
-0.0250777778
-0.0250777778
-0.0150777778
-0.0250777778
-0.0350777778
-0.0350777778
-0.0350777778
-0.0250777778
-0.0150777778
-0.0150777778
-0.0250777778
-0.0350777778
-0.0200777778
-0.0150777778
-0.0100777778
-0.0150777778
-0.0250777778
-0.0300777778
-0.0300777778
-0.0200777778
-0.0150777778
-0.0100777778
-0.0400777778
-0.0350777778
-0.0250777778
-0.0150777778
-0.0250777778
-0.0300777778
-0.0400777778
-0.0600777778
-0.0500777778
-0.0250777778
-0.0250777778
-0.0300777778
-0.0350777778
-0.0450777778
-0.0400777778
-0.0250777778
-0.0250777778
-0.0300777778
-0.0400777778
-0.0400777778
-0.0300777778
-0.0350777778
-0.0200777778
-0.0250777778
-0.0350777778
-0.0350777778
-0.0350777778
-0.0200777778
-0.0200777778
-0.0250777778
-0.0450777778
-0.0500777778
-0.0300777778
-0.0100777778
-0.0000777778
0.0049222222
0.0249222222
0.0149222222
0.0249222222
0.0199222222
0.0349222222
0.0449222222
0.0599222222
0.0449222222
0.0549222222
0.0599222222
0.0699222222
0.0749222222
0.0649222222
0.0549222222
0.0599222222
0.0599222222
0.0699222222
0.0599222222
0.0399222222
0.0399222222
0.0449222222
0.0349222222
0.0399222222
0.0649222222
0.0749222222
0.0749222222
0.0599222222
0.0349222222
0.0299222222
0.0199222222
-0.0000777778
-0.0150777778
-0.0350777778
-0.0300777778
-0.0350777778
-0.0350777778
-0.0550777778
-0.0650777778
-0.0600777778
-0.0400777778
-0.0300777778
-0.0400777778
-0.0450777778
-0.0500777778
-0.0500777778
-0.0450777778
-0.0400777778
-0.0450777778
-0.0500777778
-0.0650777778
-0.0650777778
-0.0450777778
-0.0400777778
-0.0600777778
-0.0650777778
-0.0750777778
-0.0750777778
-0.0650777778
-0.0600777778
-0.0750777778
-0.1050777778
-0.1450777778
-0.1800777778
-0.1950777778
-0.2100777778
-0.2400777778
-0.2650777778
-0.2100777778
-0.0900777778
0.0649222222
0.2149222222
0.4249222222
0.6749222222
0.9199222222
1.1299222222
1.2099222222
1.1499222222
0.8999222222
0.5049222222
0.1149222222
-0.1300777778
-0.2050777778
-0.1750777778
-0.1450777778
-0.1150777778
-0.0950777778
-0.0950777778
-0.0950777778
-0.0800777778
-0.0750777778
-0.0850777778
-0.1050777778
-0.1150777778
-0.0950777778
-0.0950777778
-0.0950777778
-0.0950777778
-0.1100777778
-0.1000777778
-0.0900777778
-0.0850777778
-0.1000777778
-0.0900777778
-0.1000777778
-0.0800777778
-0.0750777778
-0.0650777778
-0.0800777778
-0.0800777778
-0.0800777778
-0.0800777778
-0.0750777778
-0.0800777778
-0.0800777778
-0.0800777778
-0.0900777778
-0.0750777778
-0.0900777778
-0.0800777778
-0.0750777778
-0.0850777778
-0.0900777778
-0.0950777778
-0.0850777778
-0.0800777778
-0.0750777778
-0.0850777778
-0.0950777778
-0.0850777778
-0.0950777778
-0.0900777778
-0.0850777778
-0.0850777778
-0.0900777778
-0.0850777778
-0.0800777778
-0.0750777778
-0.0850777778
-0.0850777778
-0.0800777778
-0.0750777778
-0.0700777778
-0.0750777778
-0.0700777778
-0.0750777778
-0.1000777778
-0.0950777778
-0.0850777778
-0.0800777778
-0.0800777778
-0.0950777778
-0.1000777778
-0.0900777778
-0.0750777778
-0.0800777778
-0.0850777778
-0.0950777778
-0.1150777778
-0.0950777778
-0.0950777778
-0.0800777778
-0.0850777778
-0.1000777778
-0.1100777778
-0.1050777778
-0.0900777778
-0.0900777778
-0.0850777778
-0.0950777778
-0.1050777778
-0.1050777778
-0.1000777778
-0.0900777778
-0.0900777778
-0.1000777778
-0.1100777778
-0.1050777778
-0.1000777778
-0.0850777778
-0.0950777778
-0.0900777778
-0.0900777778
-0.0650777778
-0.0500777778
-0.0400777778
-0.0300777778
-0.0300777778
-0.0300777778
-0.0150777778
-0.0000777778
0.0149222222
0.0049222222
0.0049222222
-0.0000777778
0.0149222222
0.0149222222
0.0249222222
0.0299222222
0.0249222222
0.0249222222
0.0349222222
0.0349222222
0.0499222222
0.0399222222
0.0399222222
0.0249222222
0.0399222222
0.0349222222
0.0449222222
0.0349222222
0.0249222222
0.0149222222
0.0249222222
0.0349222222
0.0349222222
0.0299222222
0.0199222222
0.0099222222
0.0249222222
0.0199222222
0.0299222222
0.0349222222
0.0149222222
0.0099222222
0.0199222222
0.0249222222
0.0149222222
0.0199222222
0.0149222222
-0.0000777778
-0.0000777778
0.0099222222
0.0199222222
0.0099222222
-0.0000777778
-0.0200777778
-0.0100777778
0.0099222222
0.0049222222
-0.0050777778
-0.0050777778
-0.0250777778
-0.0100777778
-0.0000777778
-0.0000777778
-0.0150777778
-0.0150777778
-0.0350777778
-0.0200777778
-0.0000777778
0.0049222222
-0.0100777778
-0.0200777778
-0.0200777778
-0.0300777778
-0.0100777778
-0.0100777778
-0.0200777778
-0.0300777778
-0.0350777778
-0.0250777778
-0.0150777778
-0.0150777778
-0.0200777778
-0.0200777778
-0.0250777778
-0.0150777778
-0.0150777778
-0.0050777778
-0.0050777778
-0.0150777778
-0.0200777778
-0.0200777778
-0.0000777778
0.0049222222
-0.0000777778
-0.0150777778
-0.0150777778
-0.0000777778
-0.0050777778
0.0049222222
-0.0000777778
-0.0000777778
-0.0250777778
-0.0150777778
-0.0000777778
0.0099222222
-0.0000777778
-0.0000777778
-0.0200777778
-0.0100777778
-0.0000777778
0.0099222222
0.0099222222
0.0099222222
0.0249222222
0.0399222222
0.0649222222
0.0699222222
0.0699222222
0.0649222222
0.0599222222
0.0799222222
0.0999222222
0.0899222222
0.0899222222
0.1049222222
0.0999222222
0.0949222222
0.0899222222
0.0899222222
0.0849222222
0.0749222222
0.0649222222
0.0799222222
0.0849222222
0.0749222222
0.0849222222
0.0899222222
0.0999222222
0.1249222222
0.0999222222
0.0749222222
0.0599222222
0.0499222222
0.0299222222
0.0199222222
0.0149222222
0.0149222222
-0.0000777778
-0.0100777778
-0.0300777778
-0.0300777778
-0.0150777778
-0.0150777778
-0.0150777778
-0.0200777778
-0.0300777778
-0.0300777778
-0.0250777778
-0.0150777778
-0.0250777778
-0.0350777778
-0.0500777778
-0.0300777778
-0.0250777778
-0.0150777778
-0.0150777778
-0.0150777778
-0.0350777778
-0.0350777778
-0.0250777778
-0.0350777778
-0.0750777778
-0.1300777778
-0.1600777778
-0.1850777778
-0.2050777778
-0.2250777778
-0.1800777778
-0.0750777778
0.0649222222
0.2499222222
0.4649222222
0.7449222222
1.0049222222
1.1949222222
1.2449222222
1.1149222222
0.7899222222
0.3399222222
-0.0050777778
-0.1500777778
-0.1650777778
-0.0900777778
-0.0450777778
-0.0350777778
-0.0450777778
-0.0600777778
-0.0650777778
-0.0600777778
-0.0500777778
-0.0500777778
-0.0550777778
-0.0650777778
-0.0750777778
-0.0650777778
-0.0600777778
-0.0650777778
-0.0550777778
-0.0700777778
-0.0850777778
-0.0850777778
-0.0700777778
-0.0650777778
-0.0650777778
-0.0700777778
-0.0900777778
-0.0800777778
-0.0700777778
-0.0650777778
-0.0650777778
-0.0750777778
-0.0700777778
-0.0750777778
-0.0600777778
-0.0550777778
-0.0600777778
-0.0650777778
-0.0800777778
-0.0650777778
-0.0600777778
-0.0550777778
-0.0600777778
-0.0750777778
-0.0750777778
-0.0650777778
-0.0550777778
-0.0500777778
-0.0450777778
-0.0650777778
-0.0750777778
-0.0650777778
-0.0650777778
-0.0500777778
-0.0550777778
-0.0500777778
-0.0550777778
-0.0550777778
-0.0500777778
-0.0350777778
-0.0450777778
-0.0600777778
-0.0550777778
-0.0500777778
-0.0600777778
-0.0450777778
-0.0500777778
-0.0550777778
-0.0700777778
-0.0600777778
-0.0550777778
-0.0600777778
-0.0500777778
-0.0550777778
-0.0600777778
-0.0650777778
-0.0650777778
-0.0500777778
-0.0550777778
-0.0550777778
-0.0600777778
-0.0600777778
-0.0600777778
-0.0600777778
-0.0550777778
-0.0700777778
-0.0750777778
-0.0650777778
-0.0650777778
-0.0550777778
-0.0550777778
-0.0650777778
-0.0650777778
-0.0700777778
-0.0500777778
-0.0450777778
-0.0450777778
-0.0550777778
-0.0650777778
-0.0300777778
-0.0250777778
-0.0050777778
-0.0050777778
-0.0100777778
-0.0050777778
-0.0050777778
0.0049222222
0.0049222222
0.0049222222
0.0199222222
0.0199222222
0.0349222222
0.0499222222
0.0549222222
0.0599222222
0.0449222222
0.0349222222
0.0549222222
0.0649222222
0.0699222222
0.0499222222
0.0399222222
0.0349222222
0.0349222222
0.0399222222
0.0499222222
0.0499222222
0.0499222222
0.0349222222
0.0399222222
0.0449222222
0.0499222222
0.0549222222
0.0449222222
0.0299222222
0.0349222222
0.0349222222
0.0449222222
0.0499222222
0.0399222222
0.0249222222
0.0399222222
0.0499222222
0.0499222222
0.0449222222
0.0349222222
0.0199222222
0.0249222222
0.0299222222
0.0249222222
0.0199222222
0.0299222222
0.0149222222
0.0249222222
0.0299222222
0.0249222222
0.0299222222
0.0099222222
-0.0000777778
0.0049222222
0.0049222222
0.0199222222
0.0149222222
0.0049222222
-0.0100777778
-0.0000777778
0.0149222222
0.0049222222
0.0149222222
0.0049222222
-0.0050777778
0.0099222222
0.0249222222
0.0199222222
0.0149222222
0.0099222222
-0.0050777778
0.0049222222
0.0049222222
0.0149222222
0.0149222222
-0.0050777778
-0.0000777778
-0.0000777778
0.0099222222
0.0149222222
-0.0000777778
-0.0000777778
-0.0000777778
0.0099222222
0.0149222222
0.0299222222
0.0349222222
0.0299222222
0.0149222222
0.0099222222
0.0199222222
0.0199222222
0.0099222222
0.0049222222
0.0049222222
0.0099222222
0.0249222222
0.0199222222
0.0249222222
0.0049222222
0.0099222222
0.0299222222
0.0549222222
0.0799222222
0.0649222222
0.0799222222
0.0699222222
0.0949222222
0.0949222222
0.1049222222
0.1099222222
0.1199222222
0.1249222222
0.1249222222
0.1399222222
0.1449222222
0.1399222222
0.1149222222
0.1049222222
0.1099222222
0.1099222222
0.1099222222
0.1099222222
0.1049222222
0.0949222222
0.1099222222
0.1399222222
0.1499222222
0.1349222222
0.0799222222
0.0649222222
0.0649222222
0.0499222222
0.0449222222
0.0349222222
0.0199222222
0.0199222222
0.0049222222
0.0149222222
0.0199222222
0.0249222222
0.0199222222
0.0049222222
0.0099222222
0.0099222222
0.0199222222
0.0199222222
0.0149222222
0.0049222222
-0.0050777778
-0.0000777778
-0.0000777778
-0.0000777778
-0.0050777778
-0.0200777778
-0.0150777778
-0.0050777778
0.0049222222
-0.0000777778
-0.0250777778
-0.0500777778
-0.0750777778
-0.1050777778
-0.1250777778
-0.1450777778
-0.1900777778
-0.2100777778
-0.1650777778
-0.0500777778
0.0849222222
0.2299222222
0.4249222222
0.6949222222
0.9749222222
1.1399222222
1.1849222222
1.0549222222
0.7699222222
0.3799222222
0.0499222222
-0.1100777778
-0.1400777778
-0.0950777778
-0.0650777778
-0.0450777778
-0.0350777778
-0.0350777778
-0.0250777778
-0.0300777778
-0.0300777778
-0.0400777778
-0.0250777778
-0.0200777778
-0.0200777778
-0.0150777778
-0.0150777778
-0.0350777778
-0.0250777778
-0.0200777778
-0.0150777778
-0.0200777778
-0.0300777778
-0.0450777778
-0.0400777778
-0.0450777778
-0.0300777778
-0.0250777778
-0.0450777778
-0.0400777778
-0.0300777778
-0.0350777778
-0.0300777778
-0.0350777778
-0.0300777778
-0.0400777778
-0.0150777778
-0.0150777778
-0.0100777778
-0.0200777778
-0.0300777778
-0.0300777778
-0.0250777778
-0.0150777778
-0.0250777778
-0.0350777778
-0.0350777778
-0.0500777778
-0.0350777778
-0.0300777778
-0.0250777778
-0.0450777778
-0.0450777778
-0.0500777778
-0.0450777778
-0.0350777778
-0.0250777778
-0.0250777778
-0.0250777778
-0.0200777778
-0.0150777778
-0.0050777778
-0.0150777778
-0.0250777778
-0.0300777778
-0.0300777778
-0.0350777778
-0.0350777778
-0.0400777778
-0.0300777778
-0.0400777778
-0.0450777778
-0.0250777778
-0.0250777778
-0.0100777778
-0.0300777778
-0.0250777778
-0.0350777778
-0.0300777778
-0.0200777778
-0.0150777778
-0.0300777778
-0.0450777778
-0.0600777778
-0.0650777778
-0.0350777778
-0.0400777778
-0.0350777778
-0.0500777778
-0.0650777778
-0.0500777778
-0.0500777778
-0.0300777778
-0.0250777778
-0.0450777778
-0.0450777778
-0.0400777778
-0.0250777778
-0.0100777778
-0.0100777778
-0.0100777778
-0.0150777778
0.0049222222
0.0099222222
0.0349222222
0.0299222222
0.0299222222
0.0199222222
0.0399222222
0.0449222222
0.0599222222
0.0599222222
0.0499222222
0.0549222222
0.0649222222
0.0699222222
0.0749222222
0.0749222222
0.0649222222
0.0549222222
0.0599222222
0.0649222222
0.0799222222
0.0699222222
0.0649222222
0.0449222222
0.0449222222
0.0549222222
0.0499222222
0.0449222222
0.0399222222
0.0299222222
0.0399222222
0.0449222222
0.0499222222
0.0499222222
0.0399222222
0.0299222222
0.0399222222
0.0349222222
0.0449222222
0.0299222222
0.0399222222
0.0299222222
0.0399222222
0.0349222222
0.0449222222
0.0399222222
0.0249222222
0.0149222222
0.0199222222
0.0199222222
0.0149222222
0.0049222222
-0.0000777778
0.0099222222
0.0099222222
0.0199222222
0.0099222222
0.0099222222
-0.0000777778
-0.0050777778
0.0099222222
-0.0000777778
0.0099222222
0.0099222222
0.0049222222
-0.0050777778
0.0049222222
0.0149222222
0.0049222222
0.0099222222
-0.0000777778
-0.0050777778
-0.0050777778
-0.0000777778
0.0149222222
0.0149222222
0.0199222222
0.0049222222
0.0199222222
0.0099222222
0.0049222222
0.0149222222
0.0099222222
-0.0000777778
0.0099222222
0.0199222222
0.0249222222
0.0199222222
0.0049222222
-0.0050777778
-0.0050777778
0.0149222222
0.0099222222
0.0299222222
0.0049222222
-0.0050777778
-0.0000777778
0.0299222222
0.0399222222
0.0599222222
0.0599222222
0.0549222222
0.0599222222
0.0699222222
0.0899222222
0.0999222222
0.0999222222
0.0849222222
0.0999222222
0.1149222222
0.1149222222
0.1099222222
0.1099222222
0.0899222222
0.0799222222
0.0899222222
0.0949222222
0.0849222222
0.0699222222
0.0549222222
0.0599222222
0.0749222222
0.1049222222
0.1049222222
0.0749222222
0.0399222222
0.0449222222
0.0449222222
0.0249222222
0.0099222222
-0.0050777778
-0.0200777778
-0.0200777778
-0.0050777778
0.0049222222
0.0099222222
0.0049222222
-0.0100777778
-0.0100777778
-0.0050777778
-0.0050777778
-0.0150777778
-0.0250777778
-0.0300777778
-0.0300777778
-0.0300777778
-0.0250777778
-0.0300777778
-0.0450777778
-0.0400777778
-0.0300777778
-0.0350777778
-0.0250777778
-0.0250777778
-0.0300777778
-0.0450777778
-0.0600777778
-0.0850777778
-0.1050777778
-0.1200777778
-0.1500777778
-0.2000777778
-0.2200777778
-0.1700777778
-0.0700777778
0.0599222222
0.2049222222
0.4049222222
0.6799222222
0.9349222222
1.0999222222
1.1549222222
1.0399222222
0.7299222222
0.3499222222
0.0649222222
-0.0950777778
-0.1500777778
-0.1450777778
-0.1150777778
-0.0750777778
-0.0550777778
-0.0500777778
-0.0550777778
-0.0550777778
-0.0700777778
-0.0800777778
-0.0600777778
-0.0650777778
-0.0650777778
-0.0650777778
-0.0650777778
-0.0500777778
-0.0500777778
-0.0400777778
-0.0600777778
-0.0600777778
-0.0650777778
-0.0500777778
-0.0500777778
-0.0450777778
-0.0550777778
-0.0650777778
-0.0700777778
-0.0700777778
-0.0650777778
-0.0650777778
-0.0750777778
-0.0700777778
-0.0800777778
-0.0850777778
